299.67 2248
300.216875 1972
300.76375 2256
301.310625 3084
301.8575 2168
302.404375 2648
302.95125 1684
303.498125 1956
304.045 1668
304.591875 2004
305.13875 2660
305.685625 2248
306.2325 2532
306.779375 3052
307.32625 3056
307.873125 2816
308.42 3208
308.966875 2280
309.51375 2172
310.060625 1672
310.6075 2064
311.154375 2216
311.70125 2196
312.248125 2384
312.795 3736
313.341875 1904
313.88875 3772
314.435625 1988
314.9825 2864
315.529375 1400
316.07625 1556
316.623125 2344
317.17 1540
317.716875 2248
318.26375 2220
318.810625 2060
319.3575 1764
319.904375 1576
320.45125 1796
320.998125 2336
321.545 1540
322.091875 2228
322.63875 2044
323.185625 1760
323.7325 1752
324.279375 2952
324.82625 2300
325.373125 2092
325.92 2044
326.466875 2048
327.01375 2068
327.560625 3268
328.1075 1900
328.654375 2204
329.20125 2016
329.748125 1772
330.295 1704
330.841875 1996
331.38875 1604
331.935625 1740
332.4825 2540
333.029375 1684
333.57625 2400
334.123125 1616
334.67 2080
335.216875 2848
335.76375 1964
336.310625 2304
336.8575 1692
337.404375 1616
337.95125 2012
338.498125 2540
339.045 2724
339.591875 1476
340.13875 1920
340.685625 1708
341.2325 2260
341.779375 1824
342.32625 1364
342.873125 2884
343.42 2364
343.966875 1816
344.51375 2212
345.060625 2648
345.6075 2172
346.154375 2368
346.70125 2384
347.248125 2264
347.795 1504
348.341875 3412
348.88875 2072
349.435625 1988
349.9825 1644
350.529375 1748
351.07625 1968
351.623125 1816
352.17 1616
352.716875 1848
353.26375 2524
353.810625 1376
354.3575 2036
354.904375 1492
355.45125 2336
355.998125 2048
356.545 1424
357.091875 2684
357.63875 1444
358.185625 1748
358.7325 1992
359.279375 1588
359.82625 1840
360.373125 1804
360.92 1300
361.466875 1996
362.01375 1816
362.560625 2508
363.1075 1616
363.654375 1484
364.20125 2876
364.748125 2252
365.295 1684
365.841875 1732
366.38875 1272
366.935625 2064
367.4825 1764
368.029375 1372
368.57625 2120
369.123125 2100
369.67 2152
370.216875 1948
370.76375 1820
371.310625 1764
371.8575 1704
372.404375 1852
372.95125 3420
373.498125 2276
374.045 2152
374.591875 1988
375.13875 2444
375.685625 1480
376.2325 1536
376.779375 2016
377.32625 2980
377.873125 2080
378.42 1940
378.966875 2496
379.51375 1456
380.060625 1720
380.6075 2456
381.154375 2364
381.70125 1716
382.248125 2400
382.795 2156
383.341875 1804
383.88875 2292
384.435625 1948
384.9825 1984
385.529375 2592
386.07625 2260
386.623125 1816
387.17 1764
387.716875 1504
388.26375 1836
388.810625 2988
389.3575 1580
389.904375 1704
390.45125 1672
390.998125 1132
391.545 1752
392.091875 1712
392.63875 2340
393.185625 2980
393.7325 1940
394.279375 2536
394.82625 1232
395.373125 1620
395.92 1496
396.466875 2908
397.01375 2052
397.560625 1788
398.1075 1780
398.654375 1416
399.20125 1756
399.748125 2808
400.295 1964
400.841875 1556
401.38875 2196
401.935625 3032
402.4825 1860
403.029375 1836
403.57625 1924
404.123125 1880
404.67 2608
405.216875 2552
405.76375 2260
406.310625 1964
406.8575 1656
407.404375 2188
407.95125 1808
408.498125 3000
409.045 2188
409.591875 2292
410.13875 2224
410.685625 1384
411.2325 1908
411.779375 1680
412.32625 1620
412.873125 1552
413.42 1832
413.966875 2380
414.51375 1660
415.060625 2344
415.6075 2040
416.154375 1512
416.70125 1924
417.248125 2408
417.795 1844
418.341875 1952
418.88875 2368
419.435625 1212
419.9825 2388
420.529375 1708
421.07625 2324
421.623125 1864
422.17 2764
422.716875 1688
423.26375 1584
423.810625 2492
424.3575 2184
424.904375 1620
425.45125 2068
425.998125 1752
426.545 1876
427.091875 1948
427.63875 1608
428.185625 2296
428.7325 1904
429.279375 1936
429.82625 1596
430.373125 2820
430.92 1324
431.466875 2924
432.01375 2756
432.560625 2268
433.1075 1508
433.654375 1828
434.20125 1544
434.748125 1412
435.295 1780
435.841875 1388
436.38875 1716
436.935625 2224
437.4825 2228
438.029375 1740
438.57625 1856
439.123125 1600
439.67 2224
440.216875 1332
440.76375 1604
441.310625 1508
441.8575 2116
442.404375 2404
442.95125 1752
443.498125 1264
444.045 1652
444.591875 2396
445.13875 1844
445.685625 1348
446.2325 3736
446.779375 2388
447.32625 2432
447.873125 4584
448.42 1696
448.966875 3268
449.51375 1580
450.060625 1688
450.6075 1312
451.154375 1416
451.70125 1828
452.248125 1608
452.795 1132
453.341875 2484
453.88875 2488
454.435625 2132
454.9825 1860
455.529375 1588
456.07625 1404
456.623125 1372
457.17 1828
457.716875 1848
458.26375 1816
458.810625 1536
459.3575 2132
459.904375 2756
460.45125 1544
460.998125 1460
461.545 1648
462.091875 4252
462.63875 2224
463.185625 1776
463.7325 1996
464.279375 1804
464.82625 2312
465.373125 1464
465.92 1636
466.466875 1772
467.01375 1692
467.560625 1496
468.1075 2152
468.654375 1520
469.20125 1508
469.748125 1536
470.295 1780
470.841875 1624
471.38875 1260
471.935625 2212
472.4825 2476
473.029375 1736
473.57625 1996
474.123125 1984
474.67 1656
475.216875 2376
475.76375 1428
476.310625 1944
476.8575 2336
477.404375 2052
477.95125 1636
478.498125 1436
479.045 3700
479.591875 1864
480.13875 1952
480.685625 1836
481.2325 1764
481.779375 2188
482.32625 1832
482.873125 1828
483.42 1868
483.966875 1792
484.51375 1236
485.060625 1356
485.6075 1636
486.154375 1828
486.70125 1224
487.248125 1860
487.795 2756
488.341875 2248
488.88875 1552
489.435625 2020
489.9825 1556
490.529375 1768
491.07625 1752
491.623125 1612
492.17 1496
492.716875 1600
493.26375 1996
493.810625 1660
494.3575 1632
494.904375 1456
495.45125 1804
495.998125 1544
496.545 1824
497.091875 2088
497.63875 1860
498.185625 1656
498.7325 1128
499.279375 1896
499.82625 2208
500.373125 1944
500.92 2468
501.466875 2636
502.01375 1376
502.560625 2176
503.1075 1740
503.654375 1868
504.20125 1652
504.748125 1624
505.295 1808
505.841875 1868
506.38875 2532
506.935625 1656
507.4825 2216
508.029375 1324
508.57625 1580
509.123125 1856
509.67 2204
510.216875 2572
510.76375 1448
511.310625 1760
511.8575 1184
512.4043750000001 2252
512.9512500000001 1340
513.4981250000001 1256
514.0450000000001 1948
514.5918750000001 1896
515.1387500000001 2012
515.6856250000001 1788
516.2325000000001 1732
516.7793750000001 1552
517.3262500000001 1548
517.8731250000001 1768
518.4200000000001 1424
518.9668750000001 2024
519.5137500000001 2348
520.0606250000001 1756
520.6075000000001 2028
521.1543750000001 1756
521.7012500000001 1340
522.2481250000001 2092
522.7950000000001 1512
523.3418750000001 1756
523.8887500000001 1300
524.4356250000001 1200
524.9825000000001 2208
525.5293750000001 1952
526.0762500000001 1348
526.6231250000001 1868
527.1700000000001 1932
527.7168750000001 1384
528.2637500000001 1376
528.8106250000001 2004
529.3575000000001 1848
529.9043750000001 1544
530.4512500000001 1480
530.9981250000001 1516
531.5450000000001 1948
532.0918750000001 1840
532.6387500000001 1968
533.1856250000001 1616
533.7325000000001 1704
534.2793750000001 2420
534.8262500000001 1684
535.3731250000001 1552
535.9200000000001 2040
536.4668750000001 2520
537.0137500000001 1828
537.5606250000001 2188
538.1075000000001 1812
538.6543750000001 1508
539.2012500000001 2728
539.7481250000001 1740
540.2950000000001 2044
540.8418750000001 2140
541.3887500000001 1520
541.9356250000001 2228
542.4825000000001 1588
543.0293750000001 2468
543.5762500000001 2488
544.1231250000001 1692
544.6700000000001 1420
545.2168750000001 1996
545.7637500000001 2144
546.3106250000001 2112
546.8575000000001 2392
547.4043750000001 1888
547.9512500000001 1968
548.4981250000001 2012
549.0450000000001 1924
549.5918750000001 1532
550.1387500000001 1804
550.6856250000001 1488
551.2325000000001 2516
551.7793750000001 1944
552.3262500000001 2288
552.8731250000001 2700
553.4200000000001 1584
553.9668750000001 2348
554.5137500000001 1616
555.0606250000001 1364
555.6075000000001 2108
556.1543750000001 2260
556.7012500000001 1392
557.2481250000001 2484
557.7950000000001 1856
558.3418750000001 1704
558.8887500000001 1504
559.4356250000001 1960
559.9825000000001 1640
560.5293750000001 1292
561.0762500000001 3048
561.6231250000001 2572
562.1700000000001 2060
562.7168750000001 2740
563.2637500000001 1800
563.8106250000001 2056
564.3575000000001 1572
564.9043750000001 2576
565.4512500000001 1896
565.9981250000001 2284
566.5450000000001 1104
567.0918750000001 2160
567.6387500000001 1496
568.1856250000001 1560
568.7325000000001 1432
569.2793750000001 2580
569.8262500000001 1872
570.3731250000001 1684
570.9200000000001 1532
571.4668750000001 1816
572.0137500000001 1792
572.5606250000001 2196
573.1075000000001 2112
573.6543750000001 1412
574.2012500000001 1860
574.7481250000001 1732
575.2950000000001 2456
575.8418750000001 2032
576.3887500000001 1688
576.9356250000001 1368
577.4825000000001 2508
578.0293750000001 1688
578.5762500000001 1760
579.1231250000001 1268
579.6700000000001 1452
580.2168750000001 2028
580.7637500000001 1808
581.3106250000001 1400
581.8575000000001 2080
582.4043750000001 1412
582.9512500000001 1932
583.4981250000001 2468
584.0450000000001 1672
584.5918750000001 2300
585.1387500000001 2448
585.6856250000001 1736
586.2325000000001 2012
586.7793750000001 2076
587.3262500000001 2592
587.8731250000001 1928
588.4200000000001 1828
588.9668750000001 2100
589.5137500000001 1340
590.0606250000001 1912
590.6075000000001 1656
591.1543750000001 1652
591.7012500000001 1400
592.2481250000001 1860
592.7950000000001 1932
593.3418750000001 2124
593.8887500000001 2096
594.4356250000001 1292
594.9825000000001 3116
595.5293750000001 1644
596.0762500000001 1708
596.6231250000001 1604
597.1700000000001 2308
597.7168750000001 2304
598.2637500000001 1636
598.8106250000001 2388
599.3575000000001 1364
599.9043750000001 1228
600.4512500000001 1568
600.9981250000001 1228
601.5450000000001 1724
602.0918750000001 1456
602.6387500000001 2020
603.1856250000001 1928
603.7325000000001 1492
604.2793750000001 1916
604.8262500000001 1736
605.3731250000001 1176
605.9200000000001 1096
606.4668750000001 2232
607.0137500000001 1680
607.5606250000001 1832
608.1075000000001 2444
608.6543750000001 1716
609.2012500000001 1408
609.7481250000001 2216
610.2950000000001 1276
610.8418750000001 1856
611.3887500000001 1924
611.9356250000001 2292
612.4825000000001 1924
613.0293750000001 2092
613.5762500000001 1916
614.1231250000001 1636
614.6700000000001 3220
615.2168750000001 2144
615.7637500000001 1736
616.3106250000001 1840
616.8575000000001 1808
617.4043750000001 1400
617.9512500000001 2140
618.4981250000001 1876
619.0450000000001 2320
619.5918750000001 1544
620.1387500000001 1512
620.6856250000001 2384
621.2325000000001 1696
621.7793750000001 1724
622.3262500000001 2456
622.8731250000001 1848
623.4200000000001 3552
623.9668750000001 1924
624.5137500000001 1424
625.0606250000001 2092
625.6075000000001 1612
626.1543750000001 1708
626.7012500000001 1384
627.2481250000001 1580
627.7950000000001 1664
628.3418750000001 1972
628.8887500000001 1780
629.4356250000001 2780
629.9825000000001 1876
630.5293750000001 2356
631.0762500000001 1596
631.6231250000001 1644
632.1700000000001 1940
632.7168750000001 1508
633.2637500000001 2024
633.8106250000001 1592
634.3575000000001 1720
634.9043750000001 2152
635.4512500000001 1748
635.9981250000001 2252
636.5450000000001 1972
637.0918750000001 1292
637.6387500000001 1672
638.1856250000001 2580
638.7325000000001 2044
639.2793750000001 1764
639.8262500000001 2236
640.3731250000001 2124
640.9200000000001 1408
641.4668750000001 1956
642.0137500000001 2040
642.5606250000001 1880
643.1075000000001 1712
643.6543750000001 1376
644.2012500000001 1992
644.7481250000001 1868
645.2950000000001 2176
645.8418750000001 1812
646.3887500000001 2032
646.9356250000001 2216
647.4825000000001 1868
648.0293750000001 1356
648.5762500000001 1416
649.1231250000001 1856
649.6700000000001 2068
650.2168750000001 1820
650.7637500000001 1792
651.3106250000001 1764
651.8575000000001 1924
652.4043750000001 1484
652.9512500000001 1764
653.4981250000001 1176
654.0450000000001 1472
654.5918750000001 2228
655.1387500000001 2120
655.6856250000001 2832
656.2325000000001 2260
656.7793750000001 2160
657.3262500000001 2068
657.8731250000001 2228
658.4200000000001 2164
658.9668750000001 1844
659.5137500000001 1924
660.0606250000001 1744
660.6075000000001 1800
661.1543750000001 2204
661.7012500000001 1964
662.2481250000001 2140
662.7950000000001 2108
663.3418750000001 1432
663.8887500000001 1940
664.4356250000001 1532
664.9825000000001 1356
665.5293750000001 1152
666.0762500000001 1852
666.6231250000001 1972
667.1700000000001 2284
667.7168750000001 2328
668.2637500000001 2340
668.8106250000001 1424
669.3575000000001 2096
669.9043750000001 1652
670.4512500000001 2560
670.9981250000001 1580
671.5450000000001 2008
672.0918750000001 1900
672.6387500000001 2036
673.1856250000001 1844
673.7325000000001 2056
674.2793750000001 2248
674.8262500000001 2972
675.3731250000001 1444
675.9200000000001 2208
676.4668750000001 1572
677.0137500000001 2324
677.5606250000001 1652
678.1075000000001 1420
678.6543750000001 1640
679.2012500000001 1248
679.7481250000001 2232
680.2950000000001 1968
680.8418750000001 1800
681.3887500000001 1808
681.9356250000001 1928
682.4825000000001 2288
683.0293750000001 1740
683.5762500000001 1280
684.1231250000001 1884
684.6700000000001 2020
685.2168750000001 1540
685.7637500000001 2692
686.3106250000001 2056
686.8575000000001 1448
687.4043750000001 1784
687.9512500000001 1668
688.4981250000001 2132
689.0450000000001 1904
689.5918750000001 1980
690.1387500000001 1588
690.6856250000001 2800
691.2325000000001 2004
691.7793750000001 1728
692.3262500000001 1280
692.8731250000001 1972
693.4200000000001 1432
693.9668750000001 2176
694.5137500000001 1332
695.0606250000001 1856
695.6075000000001 1640
696.1543750000001 2544
696.7012500000001 1848
697.2481250000001 1664
697.7950000000001 2128
698.3418750000001 2308
698.8887500000001 1252
699.4356250000001 2264
699.9825000000001 2076
700.5293750000001 1624
701.0762500000001 2184
701.6231250000001 2124
702.1700000000001 1836
702.7168750000001 2192
703.2637500000001 1776
703.8106250000001 2004
704.3575000000001 2140
704.9043750000001 2344
705.4512500000001 2188
705.9981250000001 2204
706.5450000000001 1708
707.0918750000001 1980
707.6387500000001 1860
708.1856250000001 1600
708.7325000000001 1704
709.2793750000001 2020
709.8262500000001 2976
710.3731250000001 1740
710.9200000000001 1540
711.4668750000001 1820
712.0137500000001 2020
712.5606250000001 1576
713.1075000000001 1640
713.6543750000001 2188
714.2012500000001 1716
714.7481250000001 2104
715.2950000000001 1524
715.8418750000001 1920
716.3887500000001 2020
716.9356250000001 1932
717.4825000000001 2200
718.0293750000001 1812
718.5762500000001 2072
719.1231250000001 2524
719.6700000000001 2188
720.2168750000001 1784
720.7637500000001 1976
721.3106250000001 1700
721.8575000000001 1300
722.4043750000001 2648
722.9512500000001 2252
723.4981250000001 1448
724.0450000000001 2076
724.5918750000001 1788
725.1387500000001 2076
725.6856250000001 2260
726.2325000000001 1828
726.7793750000001 2004
727.3262500000001 1752
727.8731250000001 2088
728.4200000000001 1396
728.9668750000001 3920
729.5137500000001 1380
730.0606250000001 2388
730.6075000000001 2248
731.1543750000001 1588
731.7012500000001 1628
732.2481250000001 1900
732.7950000000001 2248
733.3418750000001 2236
733.8887500000001 2336
734.4356250000001 1432
734.9825000000001 1684
735.5293750000001 1960
736.0762500000001 1904
736.6231250000001 2284
737.1700000000001 1740
737.7168750000001 2504
738.2637500000001 2260
738.8106250000001 1864
739.3575000000001 3092
739.9043750000001 2024
740.4512500000001 1648
740.9981250000001 1624
741.5450000000001 1508
742.0918750000001 1392
742.6387500000001 2180
743.1856250000001 1864
743.7325000000001 1824
744.2793750000001 1920
744.8262500000001 1896
745.3731250000001 2216
745.9200000000001 3272
746.4668750000001 2240
747.0137500000001 2428
747.5606250000001 1464
748.1075000000001 1628
748.6543750000001 1864
749.2012500000001 1952
749.7481250000001 1968
750.2950000000001 1464
750.8418750000001 1916
751.3887500000001 1732
751.9356250000001 1944
752.4825000000001 1556
753.0293750000001 1604
753.5762500000001 1636
754.1231250000001 1476
754.6700000000001 1748
755.2168750000001 2840
755.7637500000001 1688
756.3106250000001 1140
756.8575000000001 2156
757.4043750000001 1884
757.9512500000001 1416
758.4981250000001 1416
759.0450000000001 2140
759.5918750000001 2192
760.1387500000001 2172
760.6856250000001 1320
761.2325000000001 2700
761.7793750000001 1932
762.3262500000001 2460
762.8731250000001 1776
763.4200000000001 1492
763.9668750000001 2136
764.5137500000001 1892
765.0606250000001 1876
765.6075000000001 2160
766.1543750000001 1784
766.7012500000001 2268
767.2481250000001 1608
767.7950000000001 1880
768.3418750000001 1572
768.8887500000001 2176
769.4356250000001 2084
769.9825000000001 1432
770.5293750000001 1552
771.0762500000001 2080
771.6231250000001 2116
772.1700000000001 1840
772.7168750000001 2168
773.2637500000001 2212
773.8106250000001 2128
774.3575000000001 1488
774.9043750000001 1276
775.4512500000001 2220
775.9981250000001 1704
776.5450000000001 1732
777.0918750000001 1992
777.6387500000001 1824
778.1856250000001 1864
778.7325000000001 2076
779.2793750000001 1752
779.8262500000001 2136
780.3731250000001 1784
780.9200000000001 2228
781.4668750000001 2388
782.0137500000001 1460
782.5606250000001 1644
783.1075000000001 2040
783.6543750000001 2140
784.2012500000001 2060
784.7481250000001 2216
785.2950000000001 1244
785.8418750000001 1988
786.3887500000001 1532
786.9356250000001 1564
787.4825000000001 1860
788.0293750000001 2080
788.5762500000001 2340
789.1231250000001 1788
789.6700000000001 1712
790.2168750000001 2032
790.7637500000001 1904
791.3106250000001 1680
791.8575000000001 1180
792.4043750000001 2228
792.9512500000001 1356
793.4981250000001 2156
794.0450000000001 2004
794.5918750000001 1828
795.1387500000001 1748
795.6856250000001 1980
796.2325000000001 2572
796.7793750000001 1720
797.3262500000001 1644
797.8731250000001 2272
798.4200000000001 1780
798.9668750000001 1640
799.5137500000001 1572
800.0606250000001 1928
800.6075000000001 1944
801.1543750000001 1332
801.7012500000001 2340
802.2481250000001 1616
802.7950000000001 2152
803.3418750000001 1864
803.8887500000001 1176
804.4356250000001 1816
804.9825000000001 2572
805.5293750000001 2500
806.0762500000001 1752
806.6231250000001 1464
807.1700000000001 2004
807.7168750000001 1804
808.2637500000001 2356
808.8106250000001 2072
809.3575000000001 2040
809.9043750000001 1836
810.4512500000001 1684
810.9981250000001 1956
811.5450000000001 1860
812.0918750000001 3888
812.6387500000001 1812
813.1856250000001 1524
813.7325000000001 3192
814.2793750000001 2020
814.8262500000001 1884
815.3731250000001 2544
815.9200000000001 2168
816.4668750000001 2168
817.0137500000001 2188
817.5606250000001 1672
818.1075000000001 2448
818.6543750000001 2232
819.2012500000001 1976
819.7481250000001 1516
820.2950000000001 1892
820.8418750000001 1524
821.3887500000001 2396
821.9356250000001 1368
822.4825000000001 1876
823.0293750000001 2124
823.5762500000001 1968
824.1231250000001 1756
824.6700000000001 1644
825.2168750000001 1488
825.7637500000001 1220
826.3106250000001 2656
826.8575000000001 1860
827.4043750000001 1576
827.9512500000001 1380
828.4981250000001 1508
829.0450000000001 2068
829.5918750000001 1956
830.1387500000001 1808
830.6856250000001 2296
831.2325000000001 1936
831.7793750000001 2140
832.3262500000001 2860
832.8731250000001 1804
833.4200000000001 1404
833.9668750000001 2040
834.5137500000001 2180
835.0606250000001 2252
835.6075000000001 1328
836.1543750000001 2068
836.7012500000001 2180
837.2481250000001 1584
837.7950000000001 1592
838.3418750000001 2816
838.8887500000001 1740
839.4356250000001 2368
839.9825000000001 2152
840.5293750000001 1692
841.0762500000001 1036
841.6231250000001 1768
842.1700000000001 1148
842.7168750000001 1736
843.2637500000001 1720
843.8106250000001 1792
844.3575000000001 1664
844.9043750000001 1988
845.4512500000001 2604
845.9981250000001 1872
846.5450000000001 1236
847.0918750000001 1360
847.6387500000001 2808
848.1856250000001 1804
848.7325000000001 2240
849.2793750000001 1816
849.8262500000001 1384
850.3731250000001 1108
850.9200000000001 2280
851.4668750000001 1472
852.0137500000001 1564
852.5606250000001 1676
853.1075000000001 2580
853.6543750000001 1852
854.2012500000001 1400
854.7481250000001 1672
855.2950000000001 1580
855.8418750000001 1904
856.3887500000001 1560
856.9356250000001 1896
857.4825000000001 1356
858.0293750000001 1988
858.5762500000001 1512
859.1231250000001 1748
859.6700000000001 2904
860.2168750000001 2260
860.7637500000001 1472
861.3106250000001 1656
861.8575000000001 2020
862.4043750000001 1456
862.9512500000001 2060
863.4981250000001 1708
864.0450000000001 2196
864.5918750000001 2460
865.1387500000001 2060
865.6856250000001 7984
866.2325000000001 1332
866.7793750000001 1560
867.3262500000001 1304
867.8731250000001 2120
868.4200000000001 1448
868.9668750000001 2128
869.5137500000001 1708
870.0606250000001 1848
870.6075000000001 1472
871.1543750000001 1700
871.7012500000001 1732
872.2481250000001 1616
872.7950000000001 1264
873.3418750000001 2484
873.8887500000001 2044
874.4356250000001 2460
874.9825000000001 2660
875.5293750000001 1688
876.0762500000001 1972
876.6231250000001 1432
877.1700000000001 1792
877.7168750000001 1480
878.2637500000001 2156
878.8106250000001 1756
879.3575000000001 1848
879.9043750000001 1596
880.4512500000001 2180
880.9981250000001 2876
881.5450000000001 1416
882.0918750000001 2860
882.6387500000001 1572
883.1856250000001 2372
883.7325000000001 1488
884.2793750000001 1480
884.8262500000001 2352
885.3731250000001 1488
885.9200000000001 1952
886.4668750000001 2032
887.0137500000001 2344
887.5606250000001 1776
888.1075000000001 1804
888.6543750000001 1936
889.2012500000001 1488
889.7481250000001 1516
890.2950000000001 1744
890.8418750000001 1788
891.3887500000001 2296
891.9356250000001 2676
892.4825000000001 1800
893.0293750000001 1968
893.5762500000001 1668
894.1231250000001 2500
894.6700000000001 1512
895.2168750000001 1812
895.7637500000001 2156
896.3106250000001 2364
896.8575000000001 1648
897.4043750000001 1676
897.9512500000001 1816
898.4981250000001 1780
899.0450000000001 1968
899.5918750000001 1324
900.1387500000001 2180
900.6856250000001 1348
901.2325000000001 2316
901.7793750000001 1748
902.3262500000001 1900
902.8731250000001 1884
903.4200000000001 2064
903.9668750000001 1712
904.5137500000001 1748
905.0606250000001 1824
905.6075000000001 2648
906.1543750000001 2168
906.7012500000001 1292
907.2481250000001 1416
907.7950000000001 2976
908.3418750000001 1736
908.8887500000001 1680
909.4356250000001 1416
909.9825000000001 1860
910.5293750000001 2276
911.0762500000001 1964
911.6231250000001 2116
912.1700000000001 2160
912.7168750000001 1992
913.2637500000001 1844
913.8106250000001 2280
914.3575000000001 1460
914.9043750000001 1896
915.4512500000001 2804
915.9981250000001 1396
916.5450000000001 2252
917.0918750000001 2024
917.6387500000001 1688
918.1856250000001 2436
918.7325000000001 1912
919.2793750000001 1700
919.8262500000001 2300
920.3731250000001 1804
920.9200000000001 1328
921.4668750000001 2144
922.0137500000001 2092
922.5606250000001 1508
923.1075000000001 2380
923.6543750000001 2016
924.2012500000001 1712
924.7481250000001 1728
925.2950000000001 1728
925.8418750000001 1524
926.3887500000001 2012
926.9356250000001 2668
927.4825000000001 1348
928.0293750000001 1940
928.5762500000001 1832
929.1231250000001 1864
929.6700000000001 1140
930.2168750000001 1524
930.7637500000001 2488
931.3106250000001 2564
931.8575000000001 1748
932.4043750000001 1392
932.9512500000001 1628
933.4981250000001 1744
934.0450000000001 2280
934.5918750000001 1348
935.1387500000001 1724
935.6856250000001 2604
936.2325000000001 1904
936.7793750000001 1732
937.3262500000001 1800
937.8731250000001 1804
938.4200000000001 992
938.9668750000001 1568
939.5137500000001 1524
940.0606250000001 2208
940.6075000000001 2244
941.1543750000001 1728
941.7012500000001 1576
942.2481250000001 1744
942.7950000000001 1976
943.3418750000001 1904
943.8887500000001 3380
944.4356250000001 1300
944.9825000000001 1880
945.5293750000001 1944
946.0762500000001 1832
946.6231250000001 1744
947.1700000000001 1592
947.7168750000001 2716
948.2637500000001 1524
948.8106250000001 1460
949.3575000000001 1624
949.9043750000001 1908
950.4512500000001 1624
950.9981250000001 1616
951.5450000000001 1448
952.0918750000001 3588
952.6387500000001 1248
953.1856250000001 2220
953.7325000000001 2452
954.2793750000001 2096
954.8262500000001 2448
955.3731250000001 2028
955.9200000000001 1532
956.4668750000001 1392
957.0137500000001 1576
957.5606250000001 1100
958.1075000000001 1612
958.6543750000001 1768
959.2012500000001 1684
959.7481250000001 1816
960.2950000000001 2648
960.8418750000001 1968
961.3887500000001 1744
961.9356250000001 1820
962.4825000000001 2200
963.0293750000001 1700
963.5762500000001 1700
964.1231250000001 2344
964.6700000000001 1572
965.2168750000001 3316
965.7637500000001 1420
966.3106250000001 2512
966.8575000000001 1464
967.4043750000001 1696
967.9512500000001 1644
968.4981250000001 2096
969.0450000000001 2428
969.5918750000001 2440
970.1387500000001 2984
970.6856250000001 2236
971.2325000000001 1568
971.7793750000001 1988
972.3262500000001 1388
972.8731250000001 1840
973.4200000000001 1692
973.9668750000001 2680
974.5137500000001 1780
975.0606250000001 2036
975.6075000000001 2496
976.1543750000001 2188
976.7012500000001 2604
977.2481250000001 1640
977.7950000000001 1836
978.3418750000001 1756
978.8887500000001 1644
979.4356250000001 1872
979.9825000000001 1936
980.5293750000001 1664
981.0762500000001 1512
981.6231250000001 2088
982.1700000000001 1700
982.7168750000001 2028
983.2637500000001 2312
983.8106250000001 1508
984.3575000000001 1868
984.9043750000001 1688
985.4512500000001 1684
985.9981250000001 1720
986.5450000000001 1944
987.0918750000001 1812
987.6387500000001 1704
988.1856250000001 2296
988.7325000000001 1696
989.2793750000001 2348
989.8262500000001 2384
990.3731250000001 1504
990.9200000000001 1484
991.4668750000001 2312
992.0137500000001 1764
992.5606250000001 1752
993.1075000000001 2324
993.6543750000001 2024
994.2012500000001 1408
994.7481250000001 2456
995.2950000000001 1680
995.8418750000001 2328
996.3887500000001 1412
996.9356250000001 1864
997.4825000000001 1788
998.0293750000001 1892
998.5762500000001 1776
999.1231250000001 1400
999.6700000000001 1612
1000.2168750000001 1900
1000.7637500000001 1768
1001.3106250000001 1772
1001.8575000000001 2120
1002.4043750000001 2712
1002.9512500000001 1916
1003.4981250000001 1720
1004.0450000000001 1316
1004.5918750000001 2840
1005.1387500000001 2268
1005.6856250000001 1432
1006.2325000000001 1796
1006.7793750000001 1484
1007.3262500000001 2644
1007.8731250000001 1648
1008.4200000000001 1544
1008.9668750000001 2564
1009.5137500000001 1616
1010.0606250000001 1656
1010.6075000000001 1744
1011.1543750000001 1880
1011.7012500000001 2432
1012.2481250000001 1916
1012.7950000000001 1488
1013.3418750000001 1552
1013.8887500000001 2404
1014.4356250000001 1820
1014.9825000000001 1896
1015.5293750000001 2228
1016.0762500000001 2376
1016.6231250000001 2204
1017.1700000000001 1820
1017.7168750000001 2200
1018.2637500000001 1948
1018.8106250000001 1900
1019.3575000000001 1468
1019.9043750000001 2368
1020.4512500000001 1756
1020.9981250000001 1856
1021.5450000000001 1492
1022.0918750000001 2036
1022.6387500000001 2088
1023.1856250000001 1600
1023.7325000000001 1980
1024.279375 2168
1024.82625 1448
1025.373125 2612
1025.92 1576
1026.466875 1500
1027.01375 1668
1027.560625 1844
1028.1075 1556
1028.654375 1504
1029.20125 1372
1029.748125 1860
1030.295 1496
1030.841875 1408
1031.38875 1228
1031.935625 1652
1032.4825 1760
1033.029375 2308
1033.57625 1592
1034.123125 1960
1034.67 2332
1035.216875 1996
1035.76375 2680
1036.310625 2076
1036.8575 2284
1037.404375 2608
1037.95125 2296
1038.498125 2652
1039.045 2324
1039.591875 1576
1040.13875 1888
1040.685625 1932
1041.2325 3060
1041.779375 1768
1042.32625 1812
1042.873125 1980
1043.42 1940
1043.966875 1644
1044.51375 1912
1045.060625 1896
1045.6075 1568
1046.154375 2236
1046.70125 2316
1047.248125 1792
1047.795 1532
1048.341875 2100
1048.88875 1584
1049.435625 1712
1049.9825 1800
1050.529375 1464
1051.07625 2164
1051.623125 2556
1052.17 1172
1052.716875 1696
1053.26375 1500
1053.810625 3036
1054.3575 1852
1054.904375 1732
1055.45125 2100
1055.998125 1852
1056.545 2008
1057.091875 1464
1057.63875 1432
1058.185625 1916
1058.7325 2400
1059.279375 1968
1059.82625 1572
1060.373125 2376
1060.92 1780
1061.466875 2080
1062.01375 1588
1062.560625 3004
1063.1075 2664
1063.654375 1696
1064.20125 2128
1064.748125 1472
1065.295 1976
1065.841875 1848
1066.38875 2000
1066.935625 1884
1067.4825 1904
1068.029375 2048
1068.57625 1948
1069.123125 2272
1069.67 2376
1070.216875 1184
1070.76375 2196
1071.310625 2368
1071.8575 2588
1072.404375 1916
1072.95125 1668
1073.498125 2796
1074.045 2036
1074.591875 2140
1075.13875 1892
1075.685625 3020
1076.2325 1648
1076.779375 2464
1077.32625 2508
1077.873125 2032
1078.42 1644
1078.966875 1788
1079.51375 2600
1080.060625 1724
1080.6075 1320
1081.154375 1740
1081.70125 1444
1082.248125 2524
1082.795 2548
1083.341875 1388
1083.88875 2456
1084.435625 2740
1084.9825 1756
1085.529375 1832
1086.07625 2288
1086.623125 1808
1087.17 2208
1087.716875 1360
1088.26375 1592
1088.810625 2248
1089.3575 2404
1089.904375 2352
1090.45125 1828
1090.998125 1356
1091.545 1604
1092.091875 1448
1092.63875 2884
1093.185625 1904
1093.7325 1284
1094.279375 2104
1094.82625 1964
1095.373125 1784
1095.92 2216
1096.466875 1788
1097.01375 1456
1097.560625 1728
1098.1075 1968
1098.654375 1408
1099.20125 1828
1099.748125 1472
1100.295 1892
1100.841875 1788
1101.38875 2132
1101.935625 2136
1102.4825 1800
1103.029375 2264
1103.57625 1664
1104.123125 1676
1104.67 2096
1105.216875 2292
1105.76375 1984
1106.310625 1556
1106.8575 2144
1107.404375 1920
1107.95125 2244
1108.498125 1884
1109.045 2148
1109.591875 2396
1110.13875 1848
1110.685625 1828
1111.2325 2120
1111.779375 2792
1112.32625 1736
1112.873125 2240
1113.42 2092
1113.966875 2172
1114.51375 1536
1115.060625 1848
1115.6075 1600
1116.154375 1772
1116.70125 2116
1117.248125 3992
1117.795 1900
1118.341875 1920
1118.88875 1268
1119.435625 1936
1119.9825 2888
1120.529375 1632
1121.07625 1292
1121.623125 1804
1122.17 2508
1122.716875 1840
1123.26375 1808
1123.810625 2936
1124.3575 1972
1124.904375 1636
1125.45125 1472
1125.998125 2044
1126.545 1408
1127.091875 1532
1127.63875 1740
1128.185625 1916
1128.7325 2484
1129.279375 2284
1129.82625 1780
1130.373125 1832
1130.92 2784
1131.466875 2608
1132.01375 2320
1132.560625 1800
1133.1075 2512
1133.654375 2368
1134.20125 2108
1134.748125 2088
1135.295 2676
1135.841875 1648
1136.38875 1336
1136.935625 1772
1137.4825 1560
1138.029375 2732
1138.57625 2096
1139.123125 1776
1139.67 1556
1140.216875 1820
1140.76375 1712
1141.310625 1852
1141.8575 1704
1142.404375 2088
1142.95125 1712
1143.498125 1704
1144.045 2276
1144.591875 2448
1145.13875 1752
1145.685625 2496
1146.2325 1952
1146.779375 1588
1147.32625 2580
1147.873125 2540
1148.42 2492
1148.966875 1568
1149.51375 1988
1150.060625 2148
1150.6075 2156
1151.154375 1716
1151.70125 1492
1152.248125 1492
1152.795 1328
1153.341875 1880
1153.88875 2428
1154.435625 2376
1154.9825 1780
1155.529375 2296
1156.07625 1736
1156.623125 1452
1157.17 1872
1157.716875 2084
1158.26375 1424
1158.810625 1600
1159.3575 2232
1159.904375 1892
1160.45125 1932
1160.998125 1808
1161.545 1992
1162.091875 1524
1162.63875 2644
1163.185625 1964
1163.7325 3004
1164.279375 1752
1164.82625 1844
1165.373125 2032
1165.92 1656
1166.466875 2520
1167.01375 1560
1167.560625 1704
1168.1075 2044
1168.654375 2780
1169.20125 1620
1169.748125 1988
1170.295 1584
1170.841875 1508
1171.38875 1736
1171.935625 1636
1172.4825 2324
1173.029375 1692
1173.57625 1884
1174.123125 2808
1174.67 2280
1175.216875 2660
1175.76375 1868
1176.310625 2452
1176.8575 1860
1177.404375 2140
1177.95125 2604
1178.498125 1952
1179.045 1804
1179.591875 1672
1180.13875 1692
1180.685625 2804
1181.2325 1540
1181.779375 2528
1182.32625 1552
1182.873125 1688
1183.42 1644
1183.966875 1732
1184.51375 2196
1185.060625 1468
1185.6075 2032
1186.154375 2084
1186.70125 1380
1187.248125 2248
1187.795 1340
1188.341875 2280
1188.88875 1572
1189.435625 1636
1189.9825 1980
1190.529375 2040
1191.07625 1820
1191.623125 2608
1192.17 1880
1192.716875 1592
1193.26375 2112
1193.810625 1692
1194.3575 1408
1194.904375 2108
1195.45125 2008
1195.998125 2124
1196.545 1772
1197.091875 1516
1197.63875 1576
1198.185625 1756
1198.7325 2204
1199.279375 1344
1199.82625 2580
1200.373125 2304
1200.92 2588
1201.466875 1948
1202.01375 2120
1202.560625 1740
1203.1075 2012
1203.654375 1860
1204.20125 1592
1204.748125 1816
1205.295 1964
1205.841875 1988
1206.38875 1516
1206.935625 1840
1207.4825 2156
1208.029375 1824
1208.57625 1540
1209.123125 1228
1209.67 2152
1210.216875 2608
1210.76375 2256
1211.310625 2792
1211.8575 2160
1212.404375 1548
1212.95125 2164
1213.498125 1364
1214.045 1716
1214.591875 1636
1215.13875 2012
1215.685625 2044
1216.2325 1876
1216.779375 2152
1217.32625 2696
1217.873125 2232
1218.42 2364
1218.966875 2252
1219.51375 1460
1220.060625 2104
1220.6075 2108
1221.154375 1492
1221.70125 2200
1222.248125 1560
1222.795 2096
1223.341875 1996
1223.88875 2264
1224.435625 2180
1224.9825 2160
1225.529375 2544
1226.07625 1852
1226.623125 2200
1227.17 2612
1227.716875 2092
1228.26375 2448
1228.810625 2264
1229.3575 2260
1229.904375 2856
1230.45125 2280
1230.998125 1680
1231.545 2556
1232.091875 1700
1232.63875 1964
1233.185625 1924
1233.7325 3116
1234.279375 1796
1234.82625 1680
1235.373125 1880
1235.92 2080
1236.466875 2644
1237.01375 1556
1237.560625 1808
1238.1075 2080
1238.654375 2344
1239.20125 2368
1239.748125 2000
1240.295 1720
1240.841875 1708
1241.38875 1716
1241.935625 1684
1242.4825 2224
1243.029375 2296
1243.57625 1436
1244.123125 1972
1244.67 2820
1245.216875 2096
1245.76375 2428
1246.310625 2420
1246.8575 1764
1247.404375 1852
1247.95125 2364
1248.498125 2748
1249.045 2584
1249.591875 1848
1250.13875 1724
1250.685625 1668
1251.2325 2104
1251.779375 2160
1252.32625 1876
1252.873125 2532
1253.42 2048
1253.966875 1544
1254.51375 1912
1255.060625 2460
1255.6075 1276
1256.154375 1648
1256.70125 1380
1257.248125 1756
1257.795 2312
1258.341875 2792
1258.88875 2284
1259.435625 2136
1259.9825 1748
1260.529375 2664
1261.07625 2328
1261.623125 2332
1262.17 2164
1262.716875 1708
1263.26375 2584
1263.810625 3052
1264.3575 2664
1264.904375 1768
1265.45125 1624
1265.998125 1668
1266.545 1800
1267.091875 1964
1267.63875 2408
1268.185625 1612
1268.7325 2256
1269.279375 3136
1269.82625 2412
1270.373125 1828
1270.92 1600
1271.466875 2568
1272.01375 2056
1272.560625 1940
1273.1075 1732
1273.654375 1748
1274.20125 2212
1274.748125 1616
1275.295 1904
1275.841875 1852
1276.38875 2448
1276.935625 2212
1277.4825 1496
1278.029375 2220
1278.57625 2416
1279.123125 2120
1279.67 1976
1280.216875 1572
1280.76375 1836
1281.310625 1892
1281.8575 2052
1282.404375 1840
1282.95125 2160
1283.498125 1800
1284.045 2064
1284.591875 2244
1285.13875 1924
1285.685625 1860
1286.2325 1828
1286.779375 1544
1287.32625 2224
1287.873125 1876
1288.42 2028
1288.966875 1828
1289.51375 3128
1290.060625 1336
1290.6075 3192
1291.154375 2220
1291.70125 2476
1292.248125 1912
1292.795 2156
1293.341875 2940
1293.88875 2180
1294.435625 1964
1294.9825 2228
1295.529375 1996
1296.07625 1724
1296.623125 1904
1297.17 2284
1297.716875 3008
1298.26375 2628
1298.810625 2256
1299.3575 2716
1299.904375 1900
1300.45125 1780
1300.998125 2096
1301.545 2412
1302.091875 1756
1302.63875 2260
1303.185625 1940
1303.7325 1900
1304.279375 2232
1304.82625 2680
1305.373125 2336
1305.92 2356
1306.466875 2336
1307.01375 2296
1307.560625 1892
1308.1075 3244
1308.654375 2324
1309.20125 2504
1309.748125 2428
1310.295 1708
1310.841875 2072
1311.38875 2392
1311.935625 2944
1312.4825 2132
1313.029375 1944
1313.57625 2408
1314.123125 2612
1314.67 2244
1315.216875 2024
1315.76375 1516
1316.310625 1880
1316.8575 1824
1317.404375 2564
1317.95125 2624
1318.498125 1796
1319.045 2700
1319.591875 2236
1320.13875 1808
1320.685625 1872
1321.2325 2876
1321.779375 2044
1322.32625 1936
1322.873125 1936
1323.42 2436
1323.966875 2000
1324.51375 1884
1325.060625 2296
1325.6075 2192
1326.154375 2288
1326.70125 2564
1327.248125 1936
1327.795 2620
1328.341875 2224
1328.88875 2020
1329.435625 2132
1329.9825 2136
1330.529375 2076
1331.07625 1856
1331.623125 2752
1332.17 1760
1332.716875 1780
1333.26375 1576
1333.810625 2348
1334.3575 2740
1334.904375 2492
1335.45125 2008
1335.998125 2988
1336.545 2568
1337.091875 1960
1337.63875 2340
1338.185625 2224
1338.7325 2032
1339.279375 2428
1339.82625 2184
1340.373125 1584
1340.92 2632
1341.466875 1868
1342.01375 2012
1342.560625 2548
1343.1075 2496
1343.654375 2148
1344.20125 2060
1344.748125 2528
1345.295 2728
1345.841875 2036
1346.38875 2256
1346.935625 1828
1347.4825 2564
1348.029375 2092
1348.57625 2072
1349.123125 2096
1349.67 2156
1350.216875 2576
1350.76375 1956
1351.310625 2232
1351.8575 2028
1352.404375 2696
1352.95125 2032
1353.498125 2052
1354.045 3360
1354.591875 2640
1355.13875 2312
1355.685625 2232
1356.2325 1988
1356.779375 2316
1357.32625 2464
1357.873125 2572
1358.42 2172
1358.966875 2752
1359.51375 2384
1360.060625 2664
1360.6075 2952
1361.154375 2316
1361.70125 2672
1362.248125 2108
1362.795 2568
1363.341875 2872
1363.88875 2424
1364.435625 2420
1364.9825 3000
1365.529375 2316
1366.07625 3508
1366.623125 2608
1367.17 2788
1367.716875 2404
1368.26375 2332
1368.810625 2388
1369.3575 3080
1369.904375 2608
1370.45125 2408
1370.998125 2412
1371.545 2680
1372.091875 4100
1372.63875 2520
1373.185625 3380
1373.7325 2388
1374.279375 2248
1374.82625 2848
1375.373125 2924
1375.92 3056
1376.466875 2580
1377.01375 2780
1377.560625 2648
1378.1075 2900
1378.654375 3020
1379.20125 2532
1379.748125 2580
1380.295 2748
1380.841875 2832
1381.38875 2448
1381.935625 2496
1382.4825 2792
1383.029375 2152
1383.57625 2904
1384.123125 2608
1384.67 2708
1385.216875 2832
1385.76375 2536
1386.310625 2892
1386.8575 3056
1387.404375 2908
1387.95125 3248
1388.498125 2512
1389.045 3032
1389.591875 2936
1390.13875 3312
1390.685625 2532
1391.2325 3732
1391.779375 3012
1392.32625 3024
1392.873125 3448
1393.42 3096
1393.966875 3596
1394.51375 2968
1395.060625 4680
1395.6075 3772
1396.154375 2664
1396.70125 3024
1397.248125 3180
1397.795 3552
1398.341875 2636
1398.88875 3652
1399.435625 3380
1399.9825 3428
1400.529375 2988
1401.07625 3260
1401.623125 3716
1402.17 3432
1402.716875 3272
1403.26375 3976
1403.810625 3176
1404.3575 3376
1404.904375 3884
1405.45125 3776
1405.998125 3628
1406.545 3576
1407.091875 3352
1407.63875 3848
1408.185625 4660
1408.7325 4012
1409.279375 4344
1409.82625 3216
1410.373125 3860
1410.92 4428
1411.466875 4500
1412.01375 3608
1412.560625 4556
1413.1075 4676
1413.654375 4152
1414.20125 4928
1414.748125 3996
1415.295 4264
1415.841875 5004
1416.38875 4912
1416.935625 5716
1417.4825 5636
1418.029375 5084
1418.57625 5796
1419.123125 5396
