299.67 5.2
300.216875 -15.2
300.76375 -26.8
301.310625 3.6
301.8575 15.6
302.404375 -18.4
302.95125 -22.4
303.498125 -37.2
304.045 -29.2
304.591875 4.4
305.13875 14.0
305.685625 24.8
306.2325 24.4
306.779375 -2.8
307.32625 -1.6
307.873125 -6.0
308.42 2.0
308.966875 17.2
309.51375 20.4
310.060625 -1.6
310.6075 -6.8
311.154375 11.2
311.70125 25.6
312.248125 37.6
312.795 29.2
313.341875 62.0
313.88875 68.0
314.435625 61.6
314.9825 54.4
315.529375 52.4
316.07625 73.6
316.623125 74.0
317.17 78.0
317.716875 65.6
318.26375 85.2
318.810625 63.6
319.3575 42.4
319.904375 37.2
320.45125 58.4
320.998125 38.0
321.545 24.0
322.091875 28.4
322.63875 -2.0
323.185625 17.6
323.7325 1.2
324.279375 -1.2
324.82625 10.4
325.373125 20.0
325.92 18.4
326.466875 19.2
327.01375 22.8
327.560625 12.0
328.1075 27.6
328.654375 1.6
329.20125 7.2
329.748125 38.4
330.295 42.8
330.841875 28.4
331.38875 -4.8
331.935625 21.6
332.4825 0.8
333.029375 -12.0
333.57625 -11.2
334.123125 14.0
334.67 43.2
335.216875 32.0
335.76375 45.6
336.310625 54.0
336.8575 83.6
337.404375 74.8
337.95125 114.4
338.498125 112.0
339.045 114.0
339.591875 102.0
340.13875 74.0
340.685625 66.0
341.2325 31.2
341.779375 66.4
342.32625 49.2
342.873125 60.0
343.42 32.0
343.966875 40.4
344.51375 30.0
345.060625 40.4
345.6075 20.4
346.154375 28.0
346.70125 49.2
347.248125 6.4
347.795 33.2
348.341875 30.0
348.88875 24.0
349.435625 5.2
349.9825 12.8
350.529375 26.0
351.07625 44.0
351.623125 45.2
352.17 62.4
352.716875 81.2
353.26375 60.0
353.810625 46.4
354.3575 65.2
354.904375 93.2
355.45125 105.6
355.998125 94.4
356.545 103.2
357.091875 104.4
357.63875 67.2
358.185625 49.2
358.7325 45.6
359.279375 42.4
359.82625 18.4
360.373125 6.4
360.92 -6.4
361.466875 -14.8
362.01375 -18.4
362.560625 -23.6
363.1075 1.2
363.654375 18.0
364.20125 40.0
364.748125 36.0
365.295 58.8
365.841875 70.4
366.38875 81.2
366.935625 95.2
367.4825 90.4
368.029375 73.2
368.57625 64.4
369.123125 70.0
369.67 54.8
370.216875 59.2
370.76375 51.2
371.310625 56.4
371.8575 46.8
372.404375 25.2
372.95125 29.6
373.498125 53.6
374.045 75.2
374.591875 70.8
375.13875 80.0
375.685625 86.4
376.2325 70.8
376.779375 72.4
377.32625 75.2
377.873125 84.8
378.42 71.6
378.966875 73.2
379.51375 59.6
380.060625 58.0
380.6075 62.4
381.154375 99.6
381.70125 140.0
382.248125 181.6
382.795 212.4
383.341875 236.4
383.88875 241.6
384.435625 239.6
384.9825 261.2
385.529375 272.0
386.07625 262.8
386.623125 234.0
387.17 214.8
387.716875 155.2
388.26375 131.2
388.810625 96.4
389.3575 95.6
389.904375 95.6
390.45125 83.2
390.998125 66.0
391.545 62.0
392.091875 60.8
392.63875 60.0
393.185625 58.4
393.7325 57.6
394.279375 80.0
394.82625 72.8
395.373125 66.8
395.92 45.2
396.466875 57.6
397.01375 55.2
397.560625 43.6
398.1075 36.4
398.654375 59.2
399.20125 57.6
399.748125 32.0
400.295 44.4
400.841875 51.6
401.38875 66.4
401.935625 58.0
402.4825 54.4
403.029375 70.8
403.57625 77.2
404.123125 88.0
404.67 66.8
405.216875 64.4
405.76375 75.6
406.310625 65.6
406.8575 54.0
407.404375 47.2
407.95125 74.0
408.498125 76.0
409.045 60.4
409.591875 37.2
410.13875 64.0
410.685625 102.0
411.2325 90.8
411.779375 100.0
412.32625 110.8
412.873125 129.2
413.42 118.4
413.966875 117.2
414.51375 154.0
415.060625 157.6
415.6075 188.4
416.154375 221.2
416.70125 349.6
417.248125 576.0
417.795 890.4
418.341875 1236.0
418.88875 1614.8
419.435625 1980.0
419.9825 2318.0
420.529375 2623.6
421.07625 2806.0
421.623125 2916.4
422.17 2918.4
422.716875 2724.0
423.26375 2465.6
423.810625 2159.6
424.3575 1780.4
424.904375 1430.4
425.45125 1065.2
425.998125 777.6
426.545 579.2
427.091875 432.8
427.63875 350.4
428.185625 348.8
428.7325 316.8
429.279375 308.8
429.82625 333.6
430.373125 350.4
430.92 401.6
431.466875 426.8
432.01375 451.2
432.560625 506.0
433.1075 506.0
433.654375 526.8
434.20125 544.4
434.748125 552.4
435.295 579.6
435.841875 589.6
436.38875 599.2
436.935625 621.2
437.4825 651.6
438.029375 648.4
438.57625 678.4
439.123125 694.4
439.67 741.2
440.216875 780.0
440.76375 806.4
441.310625 815.6
441.8575 854.0
442.404375 890.8
442.95125 920.8
443.498125 964.0
444.045 1024.0
444.591875 1197.6
445.13875 1682.8
445.685625 2603.2
446.2325 4277.2
446.779375 6740.4
447.32625 9701.2
447.873125 12799.6
448.42 15858.0
448.966875 18700.8
449.51375 21145.2
450.060625 22744.0
450.6075 23538.8
451.154375 23462.0
451.70125 22092.8
452.248125 19731.2
452.795 16811.2
453.341875 13739.6
453.88875 10714.0
454.435625 7894.8
454.9825 5440.8
455.529375 3719.6
456.07625 2484.0
456.623125 1668.4
457.17 1402.4
457.716875 1360.4
458.26375 1360.0
458.810625 1348.4
459.3575 1353.2
459.904375 1316.4
460.45125 1331.6
460.998125 1358.8
461.545 1350.8
462.091875 1344.0
462.63875 1360.0
463.185625 1386.4
463.7325 1386.8
464.279375 1417.6
464.82625 1405.6
465.373125 1432.0
465.92 1438.8
466.466875 1419.6
467.01375 1424.8
467.560625 1439.6
468.1075 1420.0
468.654375 1392.0
469.20125 1402.0
469.748125 1374.4
470.295 1394.0
470.841875 1404.4
471.38875 1403.2
471.935625 1402.0
472.4825 1388.4
473.029375 1416.8
473.57625 1429.6
474.123125 1453.2
474.67 1436.0
475.216875 1456.0
475.76375 1464.4
476.310625 1478.4
476.8575 1454.0
477.404375 1465.6
477.95125 1505.2
478.498125 1503.6
479.045 1498.0
479.591875 1478.0
480.13875 1478.8
480.685625 1472.0
481.2325 1434.0
481.779375 1403.2
482.32625 1409.2
482.873125 1383.2
483.42 1347.6
483.966875 1333.6
484.51375 1338.8
485.060625 1334.8
485.6075 1336.4
486.154375 1327.6
486.70125 1302.0
487.248125 1304.4
487.795 1319.6
488.341875 1349.6
488.88875 1370.4
489.435625 1399.2
489.9825 1458.8
490.529375 1586.4
491.07625 1773.6
491.623125 2098.8
492.17 2585.6
492.716875 3155.6
493.26375 3900.8
493.810625 4806.4
494.3575 5952.8
494.904375 7262.4
495.45125 8650.8
495.998125 10132.8
496.545 11636.4
497.091875 12976.8
497.63875 14281.6
498.185625 15379.6
498.7325 16277.6
499.279375 16905.2
499.82625 17262.0
500.373125 17352.0
500.92 17272.4
501.466875 16935.6
502.01375 16455.6
502.560625 15928.0
503.1075 15211.6
503.654375 14516.0
504.20125 13796.0
504.748125 13076.0
505.295 12328.0
505.841875 11606.0
506.38875 10859.2
506.935625 10164.0
507.4825 9480.8
508.029375 8760.4
508.57625 8043.6
509.123125 7377.6
509.67 6666.8
510.216875 5950.0
510.76375 5293.2
511.310625 4643.6
511.8575 4028.8
512.4043750000001 3479.6
512.9512500000001 2943.6
513.4981250000001 2510.4
514.0450000000001 2136.8
514.5918750000001 1780.4
515.1387500000001 1502.8
515.6856250000001 1337.2
516.2325000000001 1155.6
516.7793750000001 1044.4
517.3262500000001 976.0
517.8731250000001 904.8
518.4200000000001 866.4
518.9668750000001 824.0
519.5137500000001 824.8
520.0606250000001 828.0
520.6075000000001 831.2
521.1543750000001 828.4
521.7012500000001 833.2
522.2481250000001 816.8
522.7950000000001 804.0
523.3418750000001 798.0
523.8887500000001 775.2
524.4356250000001 760.8
524.9825000000001 755.6
525.5293750000001 736.0
526.0762500000001 712.4
526.6231250000001 690.4
527.1700000000001 684.0
527.7168750000001 676.0
528.2637500000001 654.8
528.8106250000001 633.6
529.3575000000001 596.4
529.9043750000001 560.8
530.4512500000001 526.4
530.9981250000001 483.2
531.5450000000001 472.8
532.0918750000001 440.8
532.6387500000001 409.2
533.1856250000001 382.8
533.7325000000001 380.4
534.2793750000001 365.2
534.8262500000001 365.2
535.3731250000001 392.8
535.9200000000001 398.4
536.4668750000001 454.0
537.0137500000001 464.0
537.5606250000001 522.4
538.1075000000001 608.0
538.6543750000001 738.8
539.2012500000001 915.2
539.7481250000001 1100.0
540.2950000000001 1288.4
540.8418750000001 1495.6
541.3887500000001 1764.0
541.9356250000001 2032.4
542.4825000000001 2403.6
543.0293750000001 2831.2
543.5762500000001 3385.2
544.1231250000001 4133.2
544.6700000000001 5091.2
545.2168750000001 6500.0
545.7637500000001 8530.8
546.3106250000001 11375.6
546.8575000000001 15046.8
547.4043750000001 19684.8
547.9512500000001 25071.6
548.4981250000001 30951.2
549.0450000000001 36596.0
549.5918750000001 42068.4
550.1387500000001 47306.0
550.6856250000001 52016.0
551.2325000000001 56094.4
551.7793750000001 59402.0
552.3262500000001 61714.0
552.8731250000001 62733.2
553.4200000000001 62194.4
553.9668750000001 60153.6
554.5137500000001 57624.8
555.0606250000001 54455.6
555.6075000000001 50711.6
556.1543750000001 46720.8
556.7012500000001 42615.2
557.2481250000001 38252.0
557.7950000000001 33795.6
558.3418750000001 29476.4
558.8887500000001 25690.0
559.4356250000001 22531.2
559.9825000000001 19820.8
560.5293750000001 17443.6
561.0762500000001 15438.8
561.6231250000001 13636.4
562.1700000000001 11844.0
562.7168750000001 10126.4
563.2637500000001 8582.0
563.8106250000001 7166.0
564.3575000000001 5870.8
564.9043750000001 4901.2
565.4512500000001 4008.0
565.9981250000001 3340.0
566.5450000000001 2846.4
567.0918750000001 2476.8
567.6387500000001 2209.6
568.1856250000001 2036.0
568.7325000000001 1876.8
569.2793750000001 1757.6
569.8262500000001 1672.0
570.3731250000001 1564.8
570.9200000000001 1483.6
571.4668750000001 1444.0
572.0137500000001 1412.4
572.5606250000001 1349.6
573.1075000000001 1306.4
573.6543750000001 1266.0
574.2012500000001 1226.8
574.7481250000001 1194.8
575.2950000000001 1186.4
575.8418750000001 1192.8
576.3887500000001 1242.4
576.9356250000001 1253.6
577.4825000000001 1294.4
578.0293750000001 1386.0
578.5762500000001 1547.6
579.1231250000001 1813.2
579.6700000000001 2219.2
580.2168750000001 2764.4
580.7637500000001 3492.8
581.3106250000001 4373.6
581.8575000000001 5424.4
582.4043750000001 6642.0
582.9512500000001 7952.0
583.4981250000001 9388.4
584.0450000000001 10888.4
584.5918750000001 12383.2
585.1387500000001 13796.0
585.6856250000001 15230.4
586.2325000000001 16560.0
586.7793750000001 17782.4
587.3262500000001 18839.6
587.8731250000001 19818.0
588.4200000000001 20743.2
588.9668750000001 21609.2
589.5137500000001 22556.4
590.0606250000001 23418.8
590.6075000000001 24284.0
591.1543750000001 25044.0
591.7012500000001 25665.2
592.2481250000001 26076.8
592.7950000000001 26289.6
593.3418750000001 26228.8
593.8887500000001 25982.8
594.4356250000001 25524.8
594.9825000000001 24801.6
595.5293750000001 24028.4
596.0762500000001 23194.8
596.6231250000001 22210.0
597.1700000000001 21217.2
597.7168750000001 20200.4
598.2637500000001 19182.8
598.8106250000001 18190.4
599.3575000000001 17136.0
599.9043750000001 16164.8
600.4512500000001 15169.2
600.9981250000001 14268.4
601.5450000000001 13364.8
602.0918750000001 12620.0
602.6387500000001 11934.0
603.1856250000001 11420.4
603.7325000000001 11038.8
604.2793750000001 10724.8
604.8262500000001 10482.8
605.3731250000001 10181.6
605.9200000000001 9859.2
606.4668750000001 9410.0
607.0137500000001 8972.8
607.5606250000001 8437.6
608.1075000000001 7949.6
608.6543750000001 7576.4
609.2012500000001 7327.6
609.7481250000001 7382.8
610.2950000000001 8003.6
610.8418750000001 9634.4
611.3887500000001 12732.8
611.9356250000001 17606.8
612.4825000000001 23404.8
613.0293750000001 29155.2
613.5762500000001 34900.0
614.1231250000001 40485.2
614.6700000000001 46056.8
615.2168750000001 51426.0
615.7637500000001 56243.6
616.3106250000001 60216.0
616.8575000000001 62812.0
617.4043750000001 63206.4
617.9512500000001 61311.6
618.4981250000001 58681.6
619.0450000000001 55418.4
619.5918750000001 51696.0
620.1387500000001 47562.4
620.6856250000001 43111.2
621.2325000000001 38605.2
621.7793750000001 33926.0
622.3262500000001 29236.0
622.8731250000001 25058.8
623.4200000000001 22184.8
623.9668750000001 20124.0
624.5137500000001 18598.0
625.0606250000001 17556.0
625.6075000000001 16780.4
626.1543750000001 16266.4
626.7012500000001 15796.4
627.2481250000001 15446.4
627.7950000000001 15004.0
628.3418750000001 14510.0
628.8887500000001 14054.4
629.4356250000001 13574.0
629.9825000000001 13251.6
630.5293750000001 13011.2
631.0762500000001 12919.2
631.6231250000001 13005.6
632.1700000000001 13263.2
632.7168750000001 13501.2
633.2637500000001 13719.2
633.8106250000001 13854.4
634.3575000000001 13836.8
634.9043750000001 13593.2
635.4512500000001 13096.4
635.9981250000001 12350.0
636.5450000000001 11365.6
637.0918750000001 10193.6
637.6387500000001 8846.0
638.1856250000001 7492.8
638.7325000000001 6250.0
639.2793750000001 5101.2
639.8262500000001 4144.4
640.3731250000001 3403.2
640.9200000000001 2830.8
641.4668750000001 2426.0
642.0137500000001 2179.6
642.5606250000001 1992.8
643.1075000000001 1905.6
643.6543750000001 1840.8
644.2012500000001 1784.0
644.7481250000001 1778.8
645.2950000000001 1748.0
645.8418750000001 1762.8
646.3887500000001 1772.0
646.9356250000001 1810.0
647.4825000000001 1838.0
648.0293750000001 1871.2
648.5762500000001 1942.0
649.1231250000001 2029.6
649.6700000000001 2160.4
650.2168750000001 2284.8
650.7637500000001 2512.0
651.3106250000001 2703.6
651.8575000000001 2932.0
652.4043750000001 3142.4
652.9512500000001 3342.8
653.4981250000001 3526.4
654.0450000000001 3639.6
654.5918750000001 3646.8
655.1387500000001 3609.6
655.6856250000001 3484.0
656.2325000000001 3261.2
656.7793750000001 3063.2
657.3262500000001 2805.2
657.8731250000001 2566.0
658.4200000000001 2319.2
658.9668750000001 2082.0
659.5137500000001 1893.6
660.0606250000001 1790.4
660.6075000000001 1689.2
661.1543750000001 1672.4
661.7012500000001 1690.8
662.2481250000001 1716.0
662.7950000000001 1807.6
663.3418750000001 1887.2
663.8887500000001 1987.2
664.4356250000001 2099.2
664.9825000000001 2184.4
665.5293750000001 2222.0
666.0762500000001 2240.4
666.6231250000001 2233.6
667.1700000000001 2197.2
667.7168750000001 2142.8
668.2637500000001 2033.6
668.8106250000001 1930.0
669.3575000000001 1872.4
669.9043750000001 1768.4
670.4512500000001 1661.6
670.9981250000001 1614.4
671.5450000000001 1598.8
672.0918750000001 1527.6
672.6387500000001 1478.0
673.1856250000001 1434.4
673.7325000000001 1398.4
674.2793750000001 1366.4
674.8262500000001 1295.6
675.3731250000001 1257.2
675.9200000000001 1253.6
676.4668750000001 1194.0
677.0137500000001 1145.2
677.5606250000001 1169.6
678.1075000000001 1178.8
678.6543750000001 1199.2
679.2012500000001 1216.8
679.7481250000001 1231.6
680.2950000000001 1253.2
680.8418750000001 1274.8
681.3887500000001 1279.2
681.9356250000001 1317.6
682.4825000000001 1313.6
683.0293750000001 1294.8
683.5762500000001 1308.0
684.1231250000001 1297.6
684.6700000000001 1320.4
685.2168750000001 1358.4
685.7637500000001 1380.8
686.3106250000001 1447.2
686.8575000000001 1521.6
687.4043750000001 1630.8
687.9512500000001 1744.0
688.4981250000001 1876.0
689.0450000000001 1939.2
689.5918750000001 1960.4
690.1387500000001 1966.8
690.6856250000001 1942.4
691.2325000000001 1904.4
691.7793750000001 1868.0
692.3262500000001 1828.4
692.8731250000001 1752.4
693.4200000000001 1698.8
693.9668750000001 1628.8
694.5137500000001 1560.4
695.0606250000001 1529.2
695.6075000000001 1480.4
696.1543750000001 1419.6
696.7012500000001 1329.2
697.2481250000001 1228.0
697.7950000000001 1120.4
698.3418750000001 986.0
698.8887500000001 865.2
699.4356250000001 753.6
699.9825000000001 687.2
700.5293750000001 614.8
701.0762500000001 559.6
701.6231250000001 570.0
702.1700000000001 672.8
702.7168750000001 766.4
703.2637500000001 917.6
703.8106250000001 1213.2
704.3575000000001 1608.0
704.9043750000001 2052.8
705.4512500000001 2584.4
705.9981250000001 3215.6
706.5450000000001 3925.6
707.0918750000001 4584.8
707.6387500000001 5226.4
708.1856250000001 5832.8
708.7325000000001 6373.6
709.2793750000001 6762.4
709.8262500000001 6969.2
710.3731250000001 7084.4
710.9200000000001 7044.8
711.4668750000001 6908.0
712.0137500000001 6610.8
712.5606250000001 6250.8
713.1075000000001 5772.8
713.6543750000001 5237.6
714.2012500000001 4637.2
714.7481250000001 4017.2
715.2950000000001 3432.8
715.8418750000001 2860.8
716.3887500000001 2336.0
716.9356250000001 1823.6
717.4825000000001 1388.8
718.0293750000001 1014.8
718.5762500000001 743.6
719.1231250000001 532.8
719.6700000000001 404.4
720.2168750000001 318.0
720.7637500000001 279.2
721.3106250000001 263.6
721.8575000000001 256.8
722.4043750000001 241.6
722.9512500000001 240.4
723.4981250000001 243.2
724.0450000000001 236.8
724.5918750000001 247.2
725.1387500000001 237.2
725.6856250000001 253.6
726.2325000000001 263.6
726.7793750000001 257.6
727.3262500000001 242.0
727.8731250000001 251.6
728.4200000000001 283.2
728.9668750000001 275.6
729.5137500000001 274.8
730.0606250000001 256.4
730.6075000000001 250.4
731.1543750000001 244.4
731.7012500000001 219.6
732.2481250000001 211.2
732.7950000000001 212.8
733.3418750000001 205.2
733.8887500000001 148.8
734.4356250000001 129.6
734.9825000000001 106.0
735.5293750000001 118.8
736.0762500000001 121.6
736.6231250000001 136.8
737.1700000000001 146.4
737.7168750000001 154.8
738.2637500000001 166.0
738.8106250000001 169.2
739.3575000000001 184.8
739.9043750000001 231.2
740.4512500000001 261.6
740.9981250000001 284.8
741.5450000000001 284.8
742.0918750000001 269.2
742.6387500000001 270.8
743.1856250000001 247.2
743.7325000000001 245.2
744.2793750000001 260.8
744.8262500000001 269.2
745.3731250000001 248.4
745.9200000000001 239.6
746.4668750000001 215.2
747.0137500000001 219.6
747.5606250000001 231.2
748.1075000000001 225.6
748.6543750000001 257.6
749.2012500000001 248.4
749.7481250000001 239.6
750.2950000000001 212.4
750.8418750000001 195.6
751.3887500000001 178.8
751.9356250000001 163.2
752.4825000000001 177.6
753.0293750000001 154.4
753.5762500000001 170.0
754.1231250000001 188.4
754.6700000000001 244.8
755.2168750000001 360.0
755.7637500000001 529.2
756.3106250000001 777.2
756.8575000000001 1032.4
757.4043750000001 1319.6
757.9512500000001 1596.8
758.4981250000001 1890.0
759.0450000000001 2110.0
759.5918750000001 2281.2
760.1387500000001 2377.6
760.6856250000001 2339.2
761.2325000000001 2264.4
761.7793750000001 2070.8
762.3262500000001 1889.2
762.8731250000001 1648.4
763.4200000000001 1378.4
763.9668750000001 1096.4
764.5137500000001 875.6
765.0606250000001 688.4
765.6075000000001 556.0
766.1543750000001 518.8
766.7012500000001 472.0
767.2481250000001 467.2
767.7950000000001 434.4
768.3418750000001 421.2
768.8887500000001 418.0
769.4356250000001 416.0
769.9825000000001 423.6
770.5293750000001 416.8
771.0762500000001 398.4
771.6231250000001 362.8
772.1700000000001 317.6
772.7168750000001 257.2
773.2637500000001 210.8
773.8106250000001 192.0
774.3575000000001 158.0
774.9043750000001 149.6
775.4512500000001 119.2
775.9981250000001 97.2
776.5450000000001 94.4
777.0918750000001 68.8
777.6387500000001 67.6
778.1856250000001 77.2
778.7325000000001 81.6
779.2793750000001 78.0
779.8262500000001 84.0
780.3731250000001 96.0
780.9200000000001 99.2
781.4668750000001 95.2
782.0137500000001 108.4
782.5606250000001 129.6
783.1075000000001 154.4
783.6543750000001 187.6
784.2012500000001 200.0
784.7481250000001 211.6
785.2950000000001 244.0
785.8418750000001 238.8
786.3887500000001 238.0
786.9356250000001 246.8
787.4825000000001 218.8
788.0293750000001 190.4
788.5762500000001 163.6
789.1231250000001 128.8
789.6700000000001 122.4
790.2168750000001 105.2
790.7637500000001 61.2
791.3106250000001 58.4
791.8575000000001 58.0
792.4043750000001 58.0
792.9512500000001 56.8
793.4981250000001 63.2
794.0450000000001 78.8
794.5918750000001 82.0
795.1387500000001 87.2
795.6856250000001 69.6
796.2325000000001 88.4
796.7793750000001 85.6
797.3262500000001 78.8
797.8731250000001 98.4
798.4200000000001 126.0
798.9668750000001 154.0
799.5137500000001 152.4
800.0606250000001 140.4
800.6075000000001 155.6
801.1543750000001 185.2
801.7012500000001 195.6
802.2481250000001 213.6
802.7950000000001 240.0
803.3418750000001 235.6
803.8887500000001 234.8
804.4356250000001 236.4
804.9825000000001 324.8
805.5293750000001 470.4
806.0762500000001 656.0
806.6231250000001 882.4
807.1700000000001 1140.8
807.7168750000001 1422.8
808.2637500000001 1711.6
808.8106250000001 1944.4
809.3575000000001 2112.0
809.9043750000001 2242.0
810.4512500000001 2210.4
810.9981250000001 2109.6
811.5450000000001 1913.6
812.0918750000001 1667.2
812.6387500000001 1396.4
813.1856250000001 1091.2
813.7325000000001 802.8
814.2793750000001 565.2
814.8262500000001 405.6
815.3731250000001 295.6
815.9200000000001 264.0
816.4668750000001 242.4
817.0137500000001 255.2
817.5606250000001 265.2
818.1075000000001 265.6
818.6543750000001 287.2
819.2012500000001 260.4
819.7481250000001 256.4
820.2950000000001 232.0
820.8418750000001 205.2
821.3887500000001 198.8
821.9356250000001 212.4
822.4825000000001 230.0
823.0293750000001 283.2
823.5762500000001 358.4
824.1231250000001 408.0
824.6700000000001 494.4
825.2168750000001 550.4
825.7637500000001 633.6
826.3106250000001 678.0
826.8575000000001 707.6
827.4043750000001 698.4
827.9512500000001 694.8
828.4981250000001 661.6
829.0450000000001 591.6
829.5918750000001 514.8
830.1387500000001 430.0
830.6856250000001 366.0
831.2325000000001 274.8
831.7793750000001 201.6
832.3262500000001 131.2
832.8731250000001 101.2
833.4200000000001 54.8
833.9668750000001 34.0
834.5137500000001 10.0
835.0606250000001 10.0
835.6075000000001 1.2
836.1543750000001 9.2
836.7012500000001 15.6
837.2481250000001 43.2
837.7950000000001 68.4
838.3418750000001 106.0
838.8887500000001 108.4
839.4356250000001 88.8
839.9825000000001 102.8
840.5293750000001 90.0
841.0762500000001 96.0
841.6231250000001 94.4
842.1700000000001 89.2
842.7168750000001 70.4
843.2637500000001 37.6
843.8106250000001 25.2
844.3575000000001 35.6
844.9043750000001 66.4
845.4512500000001 70.4
845.9981250000001 99.6
846.5450000000001 98.8
847.0918750000001 87.2
847.6387500000001 98.0
848.1856250000001 128.8
848.7325000000001 159.6
849.2793750000001 140.0
849.8262500000001 148.0
850.3731250000001 120.8
850.9200000000001 99.6
851.4668750000001 82.8
852.0137500000001 78.4
852.5606250000001 65.6
853.1075000000001 56.4
853.6543750000001 39.6
854.2012500000001 28.0
854.7481250000001 32.4
855.2950000000001 16.0
855.8418750000001 22.8
856.3887500000001 40.4
856.9356250000001 37.2
857.4825000000001 46.0
858.0293750000001 66.0
858.5762500000001 60.4
859.1231250000001 25.6
859.6700000000001 4.0
860.2168750000001 0.0
860.7637500000001 15.2
861.3106250000001 14.8
861.8575000000001 14.4
862.4043750000001 28.0
862.9512500000001 20.0
863.4981250000001 30.4
864.0450000000001 32.8
864.5918750000001 45.6
865.1387500000001 56.4
865.6856250000001 65.2
866.2325000000001 48.8
866.7793750000001 55.6
867.3262500000001 57.2
867.8731250000001 47.6
868.4200000000001 52.8
868.9668750000001 24.8
869.5137500000001 20.0
870.0606250000001 20.4
870.6075000000001 59.2
871.1543750000001 84.4
871.7012500000001 128.8
872.2481250000001 170.0
872.7950000000001 224.8
873.3418750000001 298.4
873.8887500000001 370.4
874.4356250000001 423.2
874.9825000000001 474.8
875.5293750000001 520.0
876.0762500000001 512.0
876.6231250000001 491.6
877.1700000000001 444.8
877.7168750000001 408.4
878.2637500000001 339.6
878.8106250000001 257.6
879.3575000000001 192.0
879.9043750000001 146.8
880.4512500000001 103.6
880.9981250000001 76.0
881.5450000000001 54.4
882.0918750000001 28.4
882.6387500000001 8.8
883.1856250000001 -0.8
883.7325000000001 23.6
884.2793750000001 32.4
884.8262500000001 48.0
885.3731250000001 48.8
885.9200000000001 52.4
886.4668750000001 51.2
887.0137500000001 78.0
887.5606250000001 131.2
888.1075000000001 203.6
888.6543750000001 232.4
889.2012500000001 266.4
889.7481250000001 285.2
890.2950000000001 290.4
890.8418750000001 300.0
891.3887500000001 305.6
891.9356250000001 296.8
892.4825000000001 279.6
893.0293750000001 242.8
893.5762500000001 193.2
894.1231250000001 167.6
894.6700000000001 109.2
895.2168750000001 75.6
895.7637500000001 38.8
896.3106250000001 20.0
896.8575000000001 21.6
897.4043750000001 28.8
897.9512500000001 10.0
898.4981250000001 -0.4
899.0450000000001 4.8
899.5918750000001 -18.4
900.1387500000001 -17.2
900.6856250000001 -16.0
901.2325000000001 -8.0
901.7793750000001 6.8
902.3262500000001 -6.0
902.8731250000001 -31.6
903.4200000000001 -14.0
903.9668750000001 6.8
904.5137500000001 -2.0
905.0606250000001 5.2
905.6075000000001 22.0
906.1543750000001 31.2
906.7012500000001 22.4
907.2481250000001 2.4
907.7950000000001 9.6
908.3418750000001 34.8
908.8887500000001 16.8
909.4356250000001 1.2
909.9825000000001 9.6
910.5293750000001 10.0
911.0762500000001 -0.8
911.6231250000001 20.4
912.1700000000001 31.6
912.7168750000001 40.0
913.2637500000001 16.0
913.8106250000001 11.2
914.3575000000001 4.0
914.9043750000001 -8.8
915.4512500000001 -25.6
915.9981250000001 -20.0
916.5450000000001 -18.0
917.0918750000001 -34.8
917.6387500000001 -19.2
918.1856250000001 -14.0
918.7325000000001 -8.8
919.2793750000001 -18.0
919.8262500000001 7.2
920.3731250000001 30.8
920.9200000000001 42.4
921.4668750000001 46.4
922.0137500000001 26.0
922.5606250000001 22.4
923.1075000000001 -13.2
923.6543750000001 -14.0
924.2012500000001 6.4
924.7481250000001 4.0
925.2950000000001 -12.8
925.8418750000001 -41.2
926.3887500000001 -48.4
926.9356250000001 -55.2
927.4825000000001 -49.6
928.0293750000001 -42.4
928.5762500000001 -14.8
929.1231250000001 -29.6
929.6700000000001 -44.0
930.2168750000001 -31.6
930.7637500000001 -26.8
931.3106250000001 -18.0
931.8575000000001 -7.6
932.4043750000001 -3.2
932.9512500000001 9.6
933.4981250000001 4.0
934.0450000000001 1.6
934.5918750000001 8.4
935.1387500000001 4.0
935.6856250000001 -34.0
936.2325000000001 -26.4
936.7793750000001 -2.8
937.3262500000001 12.0
937.8731250000001 22.8
938.4200000000001 7.2
938.9668750000001 17.2
939.5137500000001 8.0
940.0606250000001 3.6
940.6075000000001 11.6
941.1543750000001 40.4
941.7012500000001 39.2
942.2481250000001 20.4
942.7950000000001 0.4
943.3418750000001 -6.0
943.8887500000001 10.4
944.4356250000001 -4.8
944.9825000000001 -1.6
945.5293750000001 3.6
946.0762500000001 0.4
946.6231250000001 -2.0
947.1700000000001 -30.8
947.7168750000001 -10.0
948.2637500000001 -23.6
948.8106250000001 -37.6
949.3575000000001 -41.6
949.9043750000001 -30.8
950.4512500000001 -29.2
950.9981250000001 -13.6
951.5450000000001 -4.0
952.0918750000001 -6.4
952.6387500000001 28.8
953.1856250000001 22.0
953.7325000000001 39.2
954.2793750000001 46.4
954.8262500000001 50.4
955.3731250000001 45.6
955.9200000000001 46.4
956.4668750000001 40.4
957.0137500000001 27.6
957.5606250000001 46.4
958.1075000000001 28.4
958.6543750000001 14.4
959.2012500000001 6.8
959.7481250000001 -0.8
960.2950000000001 -19.6
960.8418750000001 -16.8
961.3887500000001 -28.4
961.9356250000001 -43.6
962.4825000000001 -48.4
963.0293750000001 -68.8
963.5762500000001 -70.4
964.1231250000001 -82.0
964.6700000000001 -88.0
965.2168750000001 -79.2
965.7637500000001 -60.0
966.3106250000001 -61.2
966.8575000000001 -61.2
967.4043750000001 -52.4
967.9512500000001 -32.4
968.4981250000001 -10.0
969.0450000000001 3.2
969.5918750000001 36.0
970.1387500000001 51.2
970.6856250000001 47.2
971.2325000000001 50.0
971.7793750000001 57.6
972.3262500000001 77.6
972.8731250000001 72.0
973.4200000000001 32.8
973.9668750000001 14.8
974.5137500000001 -0.4
975.0606250000001 -17.2
975.6075000000001 -36.0
976.1543750000001 -32.4
976.7012500000001 -46.0
977.2481250000001 -48.8
977.7950000000001 -53.2
978.3418750000001 -34.4
978.8887500000001 -0.4
979.4356250000001 4.4
979.9825000000001 4.8
980.5293750000001 0.8
981.0762500000001 11.6
981.6231250000001 -4.4
982.1700000000001 2.0
982.7168750000001 -3.6
983.2637500000001 -0.8
983.8106250000001 -27.2
984.3575000000001 -37.2
984.9043750000001 -33.2
985.4512500000001 -36.0
985.9981250000001 -28.0
986.5450000000001 -30.4
987.0918750000001 -15.2
987.6387500000001 -19.6
988.1856250000001 -20.0
988.7325000000001 -36.4
989.2793750000001 -4.8
989.8262500000001 2.4
990.3731250000001 0.0
990.9200000000001 -11.6
991.4668750000001 -20.4
992.0137500000001 -16.4
992.5606250000001 -20.4
993.1075000000001 -8.4
993.6543750000001 -20.4
994.2012500000001 -15.2
994.7481250000001 -33.2
995.2950000000001 -25.2
995.8418750000001 -23.6
996.3887500000001 -14.0
996.9356250000001 -25.6
997.4825000000001 -32.8
998.0293750000001 -28.0
998.5762500000001 -15.2
999.1231250000001 -6.0
999.6700000000001 -16.8
1000.2168750000001 2.0
1000.7637500000001 -8.8
1001.3106250000001 -20.0
1001.8575000000001 -9.2
1002.4043750000001 3.6
1002.9512500000001 5.6
1003.4981250000001 8.8
1004.0450000000001 -18.8
1004.5918750000001 -18.8
1005.1387500000001 -20.0
1005.6856250000001 -26.0
1006.2325000000001 -17.2
1006.7793750000001 8.8
1007.3262500000001 19.6
1007.8731250000001 30.0
1008.4200000000001 42.0
1008.9668750000001 26.4
1009.5137500000001 59.2
1010.0606250000001 71.6
1010.6075000000001 97.2
1011.1543750000001 106.8
1011.7012500000001 97.6
1012.2481250000001 85.2
1012.7950000000001 83.6
1013.3418750000001 90.4
1013.8887500000001 74.0
1014.4356250000001 81.6
1014.9825000000001 70.8
1015.5293750000001 82.8
1016.0762500000001 75.2
1016.6231250000001 60.0
1017.1700000000001 65.6
1017.7168750000001 62.0
1018.2637500000001 54.4
1018.8106250000001 47.6
1019.3575000000001 48.0
1019.9043750000001 64.0
1020.4512500000001 59.2
1020.9981250000001 42.0
1021.5450000000001 34.8
1022.0918750000001 16.8
1022.6387500000001 34.0
1023.1856250000001 41.2
1023.7325000000001 50.0
1024.279375 41.2
1024.82625 48.8
1025.373125 46.0
1025.92 46.8
1026.466875 53.6
1027.01375 60.4
1027.560625 62.8
1028.1075 29.6
1028.654375 16.4
1029.20125 -2.8
1029.748125 9.6
1030.295 11.2
1030.841875 -5.6
1031.38875 -8.0
1031.935625 -37.2
1032.4825 -37.6
1033.029375 -38.8
1033.57625 -26.8
1034.123125 -30.8
1034.67 -10.0
1035.216875 -15.2
1035.76375 -17.2
1036.310625 -14.8
1036.8575 -8.4
1037.404375 10.4
1037.95125 4.0
1038.498125 9.2
1039.045 15.2
1039.591875 23.2
1040.13875 13.6
1040.685625 11.6
1041.2325 6.0
1041.779375 23.2
1042.32625 0.8
1042.873125 -16.0
1043.42 -10.4
1043.966875 -9.6
1044.51375 -24.4
1045.060625 -34.4
1045.6075 -38.4
1046.154375 -34.8
1046.70125 -36.8
1047.248125 -54.8
1047.795 -47.2
1048.341875 -50.4
1048.88875 -63.6
1049.435625 -53.6
1049.9825 -44.8
1050.529375 -54.4
1051.07625 -45.6
1051.623125 -56.0
1052.17 -40.8
1052.716875 -9.6
1053.26375 0.4
1053.810625 -8.8
1054.3575 -8.0
1054.904375 -2.4
1055.45125 14.8
1055.998125 47.6
1056.545 35.6
1057.091875 29.6
1057.63875 30.0
1058.185625 6.4
1058.7325 11.2
1059.279375 43.6
1059.82625 40.4
1060.373125 34.4
1060.92 31.6
1061.466875 17.2
1062.01375 10.4
1062.560625 20.8
1063.1075 10.4
1063.654375 18.4
1064.20125 -17.2
1064.748125 -37.6
1065.295 -34.4
1065.841875 -54.4
1066.38875 -62.0
1066.935625 -53.2
1067.4825 -38.8
1068.029375 -42.0
1068.57625 -36.4
1069.123125 -44.8
1069.67 -19.2
1070.216875 12.8
1070.76375 33.2
1071.310625 48.8
1071.8575 36.8
1072.404375 26.8
1072.95125 25.6
1073.498125 43.2
1074.045 46.0
1074.591875 34.0
1075.13875 42.8
1075.685625 23.6
1076.2325 0.0
1076.779375 -0.8
1077.32625 7.6
1077.873125 16.4
1078.42 16.8
1078.966875 -7.2
1079.51375 -34.8
1080.060625 -14.4
1080.6075 -27.6
1081.154375 -30.8
1081.70125 -20.4
1082.248125 -20.8
1082.795 -14.8
1083.341875 -34.0
1083.88875 -20.8
1084.435625 4.8
1084.9825 21.6
1085.529375 13.6
1086.07625 10.4
1086.623125 11.6
1087.17 7.6
1087.716875 -6.4
1088.26375 -2.4
1088.810625 -3.6
1089.3575 2.8
1089.904375 -32.8
1090.45125 -38.4
1090.998125 -32.4
1091.545 -30.0
1092.091875 -23.2
1092.63875 -29.6
1093.185625 5.6
1093.7325 -18.4
1094.279375 -7.2
1094.82625 -12.8
1095.373125 17.6
1095.92 30.4
1096.466875 23.2
1097.01375 40.4
1097.560625 44.8
1098.1075 68.8
1098.654375 57.6
1099.20125 63.2
1099.748125 62.0
1100.295 36.4
1100.841875 18.8
1101.38875 34.8
1101.935625 41.6
1102.4825 31.2
1103.029375 11.6
1103.57625 10.0
1104.123125 -4.4
1104.67 5.6
1105.216875 20.8
1105.76375 51.2
1106.310625 59.6
1106.8575 61.2
1107.404375 69.2
1107.95125 45.2
1108.498125 67.6
1109.045 50.8
1109.591875 54.8
1110.13875 69.6
1110.685625 47.6
1111.2325 38.8
1111.779375 34.8
1112.32625 10.4
1112.873125 -9.2
1113.42 6.4
1113.966875 8.4
1114.51375 24.4
1115.060625 24.4
1115.6075 4.4
1116.154375 20.0
1116.70125 0.4
1117.248125 18.0
1117.795 16.0
1118.341875 30.0
1118.88875 19.6
1119.435625 6.0
1119.9825 -5.2
1120.529375 -6.8
1121.07625 2.0
1121.623125 -9.6
1122.17 1.6
1122.716875 -6.0
1123.26375 11.2
1123.810625 -9.6
1124.3575 12.0
1124.904375 29.2
1125.45125 32.0
1125.998125 54.8
1126.545 33.2
1127.091875 36.8
1127.63875 44.0
1128.185625 48.0
1128.7325 43.6
1129.279375 50.8
1129.82625 40.4
1130.373125 7.6
1130.92 12.0
1131.466875 4.8
1132.01375 30.0
1132.560625 40.0
1133.1075 25.6
1133.654375 26.4
1134.20125 31.2
1134.748125 41.6
1135.295 44.4
1135.841875 51.2
1136.38875 53.6
1136.935625 64.0
1137.4825 31.6
1138.029375 13.2
1138.57625 5.6
1139.123125 -11.2
1139.67 -20.0
1140.216875 -11.2
1140.76375 -9.2
1141.310625 -26.0
1141.8575 -25.6
1142.404375 -26.4
1142.95125 -11.2
1143.498125 6.8
1144.045 30.8
1144.591875 42.0
1145.13875 56.4
1145.685625 56.4
1146.2325 60.0
1146.779375 93.6
1147.32625 92.8
1147.873125 68.0
1148.42 74.4
1148.966875 61.6
1149.51375 46.8
1150.060625 36.4
1150.6075 18.8
1151.154375 27.2
1151.70125 18.8
1152.248125 6.8
1152.795 -10.0
1153.341875 -3.6
1153.88875 -9.6
1154.435625 -18.0
1154.9825 2.8
1155.529375 -2.4
1156.07625 16.8
1156.623125 -2.4
1157.17 -3.6
1157.716875 17.2
1158.26375 20.8
1158.810625 21.6
1159.3575 28.0
1159.904375 26.8
1160.45125 10.4
1160.998125 20.8
1161.545 0.8
1162.091875 -0.8
1162.63875 -0.8
1163.185625 -12.4
1163.7325 12.0
1164.279375 4.4
1164.82625 14.4
1165.373125 36.4
1165.92 44.4
1166.466875 52.0
1167.01375 54.0
1167.560625 58.8
1168.1075 53.6
1168.654375 40.8
1169.20125 9.2
1169.748125 21.2
1170.295 19.6
1170.841875 22.4
1171.38875 14.4
1171.935625 4.4
1172.4825 20.4
1173.029375 25.6
1173.57625 32.0
1174.123125 55.6
1174.67 71.2
1175.216875 58.8
1175.76375 55.2
1176.310625 36.0
1176.8575 30.0
1177.404375 36.0
1177.95125 38.0
1178.498125 38.4
1179.045 28.8
1179.591875 13.6
1180.13875 14.4
1180.685625 10.0
1181.2325 -13.6
1181.779375 -11.6
1182.32625 -1.6
1182.873125 24.4
1183.42 27.6
1183.966875 40.4
1184.51375 82.0
1185.060625 79.2
1185.6075 69.6
1186.154375 70.0
1186.70125 92.0
1187.248125 91.6
1187.795 90.8
1188.341875 56.0
1188.88875 51.6
1189.435625 21.6
1189.9825 -0.8
1190.529375 12.4
1191.07625 37.2
1191.623125 45.6
1192.17 30.0
1192.716875 36.8
1193.26375 33.2
1193.810625 51.2
1194.3575 40.8
1194.904375 50.0
1195.45125 52.4
1195.998125 22.8
1196.545 -7.2
1197.091875 -7.6
1197.63875 -6.8
1198.185625 -21.6
1198.7325 -10.4
1199.279375 -28.0
1199.82625 -24.0
1200.373125 -22.0
1200.92 -38.0
1201.466875 2.4
1202.01375 26.0
1202.560625 44.4
1203.1075 63.2
1203.654375 85.2
1204.20125 84.0
1204.748125 99.2
1205.295 80.4
1205.841875 65.6
1206.38875 64.4
1206.935625 22.4
1207.4825 8.0
1208.029375 0.0
1208.57625 -2.8
1209.123125 3.2
1209.67 5.2
1210.216875 7.6
1210.76375 26.8
1211.310625 33.6
1211.8575 34.8
1212.404375 46.8
1212.95125 36.8
1213.498125 40.0
1214.045 44.4
1214.591875 40.4
1215.13875 44.4
1215.685625 42.0
1216.2325 51.2
1216.779375 59.2
1217.32625 85.2
1217.873125 107.2
1218.42 117.2
1218.966875 128.4
1219.51375 146.4
1220.060625 156.4
1220.6075 183.2
1221.154375 210.4
1221.70125 245.2
1222.248125 291.2
1222.795 346.8
1223.341875 426.0
1223.88875 565.2
1224.435625 722.0
1224.9825 937.6
1225.529375 1183.6
1226.07625 1453.6
1226.623125 1743.2
1227.17 1998.0
1227.716875 2219.6
1228.26375 2386.4
1228.810625 2492.4
1229.3575 2525.6
1229.904375 2523.6
1230.45125 2425.6
1230.998125 2277.2
1231.545 2053.2
1232.091875 1833.6
1232.63875 1634.8
1233.185625 1462.4
1233.7325 1301.6
1234.279375 1203.2
1234.82625 1111.6
1235.373125 992.0
1235.92 895.6
1236.466875 860.0
1237.01375 845.2
1237.560625 769.6
1238.1075 686.0
1238.654375 632.0
1239.20125 583.6
1239.748125 513.6
1240.295 446.8
1240.841875 428.4
1241.38875 412.0
1241.935625 370.8
1242.4825 317.2
1243.029375 340.0
1243.57625 354.0
1244.123125 344.8
1244.67 347.6
1245.216875 372.8
1245.76375 402.4
1246.310625 389.2
1246.8575 421.6
1247.404375 427.2
1247.95125 444.0
1248.498125 426.0
1249.045 424.4
1249.591875 418.4
1250.13875 402.0
1250.685625 382.4
1251.2325 366.8
1251.779375 366.0
1252.32625 341.2
1252.873125 329.2
1253.42 302.0
1253.966875 308.0
1254.51375 269.2
1255.060625 275.2
1255.6075 276.4
1256.154375 241.6
1256.70125 236.4
1257.248125 250.0
1257.795 222.8
1258.341875 188.4
1258.88875 190.0
1259.435625 160.8
1259.9825 188.0
1260.529375 168.0
1261.07625 173.6
1261.623125 188.4
1262.17 195.2
1262.716875 183.2
1263.26375 196.0
1263.810625 212.0
1264.3575 230.4
1264.904375 234.8
1265.45125 240.8
1265.998125 261.2
1266.545 255.6
1267.091875 265.2
1267.63875 260.4
1268.185625 275.6
1268.7325 287.2
1269.279375 320.8
1269.82625 334.4
1270.373125 352.0
1270.92 340.0
1271.466875 335.6
1272.01375 323.6
1272.560625 304.0
1273.1075 310.0
1273.654375 282.8
1274.20125 250.8
1274.748125 210.8
1275.295 162.0
1275.841875 138.4
1276.38875 108.4
1276.935625 81.6
1277.4825 84.8
1278.029375 82.0
1278.57625 78.0
1279.123125 44.8
1279.67 43.2
1280.216875 46.8
1280.76375 48.8
1281.310625 38.4
1281.8575 58.8
1282.404375 48.8
1282.95125 38.4
1283.498125 43.2
1284.045 35.2
1284.591875 40.8
1285.13875 45.2
1285.685625 44.0
1286.2325 60.8
1286.779375 37.6
1287.32625 37.6
1287.873125 57.2
1288.42 44.4
1288.966875 68.8
1289.51375 62.4
1290.060625 73.6
1290.6075 54.4
1291.154375 36.4
1291.70125 31.2
1292.248125 57.2
1292.795 49.2
1293.341875 33.6
1293.88875 36.4
1294.435625 9.2
1294.9825 0.4
1295.529375 16.8
1296.07625 37.2
1296.623125 64.8
1297.17 59.6
1297.716875 55.6
1298.26375 72.4
1298.810625 61.6
1299.3575 72.8
1299.904375 54.0
1300.45125 52.0
1300.998125 50.4
1301.545 48.0
1302.091875 33.2
1302.63875 36.8
1303.185625 43.6
1303.7325 33.2
1304.279375 60.0
1304.82625 75.6
1305.373125 87.6
1305.92 76.8
1306.466875 92.0
1307.01375 90.8
1307.560625 80.4
1308.1075 90.0
1308.654375 83.6
1309.20125 90.4
1309.748125 98.0
1310.295 96.8
1310.841875 115.2
1311.38875 135.6
1311.935625 122.0
1312.4825 121.2
1313.029375 120.0
1313.57625 120.8
1314.123125 126.4
1314.67 118.4
1315.216875 95.6
1315.76375 100.0
1316.310625 83.6
1316.8575 68.0
1317.404375 62.8
1317.95125 70.0
1318.498125 81.2
1319.045 47.6
1319.591875 46.0
1320.13875 38.4
1320.685625 28.0
1321.2325 24.0
1321.779375 42.0
1322.32625 43.6
1322.873125 43.6
1323.42 28.8
1323.966875 39.2
1324.51375 52.0
1325.060625 69.2
1325.6075 95.6
1326.154375 111.2
1326.70125 85.2
1327.248125 59.2
1327.795 66.0
1328.341875 68.8
1328.88875 69.2
1329.435625 34.0
1329.9825 42.4
1330.529375 36.4
1331.07625 -0.4
1331.623125 -11.6
1332.17 3.2
1332.716875 3.6
1333.26375 -18.4
1333.810625 -12.0
1334.3575 2.0
1334.904375 31.2
1335.45125 40.4
1335.998125 17.6
1336.545 32.4
1337.091875 50.4
1337.63875 38.8
1338.185625 51.2
1338.7325 80.0
1339.279375 76.4
1339.82625 57.6
1340.373125 58.0
1340.92 38.0
1341.466875 39.2
1342.01375 41.6
1342.560625 31.6
1343.1075 54.0
1343.654375 63.6
1344.20125 84.0
1344.748125 79.2
1345.295 98.4
1345.841875 97.6
1346.38875 118.8
1346.935625 122.4
1347.4825 94.4
1348.029375 100.0
1348.57625 78.4
1349.123125 49.6
1349.67 8.0
1350.216875 -6.4
1350.76375 -16.8
1351.310625 -33.6
1351.8575 -36.4
1352.404375 -30.4
1352.95125 -12.4
1353.498125 -14.4
1354.045 -4.4
1354.591875 24.0
1355.13875 18.0
1355.685625 25.6
1356.2325 28.0
1356.779375 31.6
1357.32625 8.0
1357.873125 1.6
1358.42 -6.0
1358.966875 -20.8
1359.51375 -18.4
1360.060625 -24.4
1360.6075 14.0
1361.154375 -3.6
1361.70125 -0.4
1362.248125 4.8
1362.795 19.6
1363.341875 5.2
1363.88875 16.4
1364.435625 40.0
1364.9825 28.8
1365.529375 28.4
1366.07625 8.8
1366.623125 20.0
1367.17 7.2
1367.716875 17.2
1368.26375 15.6
1368.810625 30.0
1369.3575 42.8
1369.904375 15.2
1370.45125 32.4
1370.998125 53.2
1371.545 61.2
1372.091875 58.0
1372.63875 54.8
1373.185625 54.0
1373.7325 20.4
1374.279375 28.0
1374.82625 38.0
1375.373125 33.6
1375.92 58.4
1376.466875 43.2
1377.01375 23.2
1377.560625 75.2
1378.1075 86.0
1378.654375 81.6
1379.20125 119.2
1379.748125 123.2
1380.295 111.6
1380.841875 141.6
1381.38875 79.6
1381.935625 64.4
1382.4825 74.0
1383.029375 35.2
1383.57625 47.6
1384.123125 68.0
1384.67 77.6
1385.216875 62.8
1385.76375 58.8
1386.310625 54.4
1386.8575 60.4
1387.404375 83.6
1387.95125 90.4
1388.498125 106.0
1389.045 74.8
1389.591875 59.6
1390.13875 42.8
1390.685625 67.6
1391.2325 70.4
1391.779375 84.0
1392.32625 116.8
1392.873125 119.2
1393.42 133.6
1393.966875 103.6
1394.51375 94.8
1395.060625 95.6
1395.6075 97.6
1396.154375 88.0
1396.70125 118.0
1397.248125 88.4
1397.795 77.2
1398.341875 50.0
1398.88875 30.8
1399.435625 36.8
1399.9825 28.0
1400.529375 18.8
1401.07625 29.2
1401.623125 28.4
1402.17 3.2
1402.716875 -6.8
1403.26375 -29.2
1403.810625 -15.2
1404.3575 2.0
1404.904375 13.6
1405.45125 58.8
1405.998125 77.6
1406.545 72.8
1407.091875 64.0
1407.63875 33.6
1408.185625 52.4
1408.7325 48.8
1409.279375 51.2
1409.82625 75.6
1410.373125 73.2
1410.92 94.8
1411.466875 42.0
1412.01375 56.4
1412.560625 46.4
1413.1075 52.8
1413.654375 29.2
